Date,Counter,EPS,PE,ADJEPS,ADJPE,EP1,EP4,HIGH50,HIGH100,HIGH200,dummy1,LOW50,LOW100,LOW200,close_troughs,close_peaks,ma25,ma50,ma100,ma200,no25,no25_troughs,no25_peaks,no25_momentum,no25_momentum_troughs,no25_momentum_peaks,no200,no200_troughs,no200_peaks,no200_momentum,no200_momentum_troughs,no200_momentum_peaks,all4,all4_troughs,all4_peaks,all4_momentum,all4_momentum_troughs,all4_momentum_peaks,all4_no25,no200_no25,all4_no200,life_moment,life_moment_troughs,life_moment_peaks,macd_short,macd_long,MACD,smooth_macd,MACD_signal,macd_distance,last_macd_distance,macd_troughs,macd_peaks,macd_dist_troughs,macd_dist_peaks,rsi_up_chg,rsi_down_chg,rsi_up_chg_avg,rsi_down_chg_avg,rsi_rs,RSI,smooth_rsi,last_rsi,rsi_troughs,rsi_peaks,rsi_distance,fastK,fastD,fast_troughs,fast_peaks,slowK,slowD,smooth_slowK,smooth_slowD,slow_troughs,slow_peaks,ATR,smooth_atr,atr_troughs,atr_peaks,bull_start,bull,bull_retrace,bull_recovery,bull_end,bear_start,bear,bear_retrace,bear_recovery,bear_end,smooth_p1,smooth_p2,smooth_p3,smooth_t1,smooth_t2,smooth_t3,smooth_p1_date,smooth_p2_date,smooth_p3_date,smooth_t1_date,smooth_t2_date,smooth_t3_date,close_p1,close_p2,close_p3,close_t1,close_t2,close_t3,close_p1_date,close_p2_date,close_p3_date,close_t1_date,close_t2_date,close_t3_date,atr_p1,atr_p2,atr_p3,atr_t1,atr_t2,atr_t3,atr_p1_date,atr_p2_date,atr_p3_date,atr_t1_date,atr_t2_date,atr_t3_date,no25_p1,no25_p2,no25_p3,no25_t1,no25_t2,no25_t3,no25_p1_date,no25_p2_date,no25_p3_date,no25_t1_date,no25_t2_date,no25_t3_date,no200_p1,no200_p2,no200_p3,no200_t1,no200_t2,no200_t3,no200_p1_date,no200_p2_date,no200_p3_date,no200_t1_date,no200_t2_date,no200_t3_date,all4_p1,all4_p2,all4_p3,all4_t1,all4_t2,all4_t3,all4_p1_date,all4_p2_date,all4_p3_date,all4_t1_date,all4_t2_date,all4_t3_date,no25_momentum_p1,no25_momentum_p2,no25_momentum_p3,no25_momentum_t1,no25_momentum_t2,no25_momentum_t3,no25_momentum_p1_date,no25_momentum_p2_date,no25_momentum_p3_date,no25_momentum_t1_date,no25_momentum_t2_date,no25_momentum_t3_date,no200_momentum_p1,no200_momentum_p2,no200_momentum_p3,no200_momentum_t1,no200_momentum_t2,no200_momentum_t3,no200_momentum_p1_date,no200_momentum_p2_date,no200_momentum_p3_date,no200_momentum_t1_date,no200_momentum_t2_date,no200_momentum_t3_date,all4_momentum_p1,all4_momentum_p2,all4_momentum_p3,all4_momentum_t1,all4_momentum_t2,all4_momentum_t3,all4_momentum_p1_date,all4_momentum_p2_date,all4_momentum_p3_date,all4_momentum_t1_date,all4_momentum_t2_date,all4_momentum_t3_date,life_moment_p1,life_moment_p2,life_moment_p3,life_moment_t1,life_moment_t2,life_moment_t3,life_moment_p1_date,life_moment_p2_date,life_moment_p3_date,life_moment_t1_date,life_moment_t2_date,life_moment_t3_date,v3,v2,v1,v3p,v2p,v1p,macd_p1,macd_p2,macd_p3,macd_t1,macd_t2,macd_t3,macd_dist_p1,macd_dist_p2,macd_dist_p3,macd_dist_t1,macd_dist_t2,macd_dist_t3,macd_p1_signal,macd_p2_signal,macd_p3_signal,macd_t1_signal,macd_t2_signal,macd_t3_signal,slow_p1,slow_p2,slow_p3,slow_t1,slow_t2,slow_t3,fast_p1,fast_p2,fast_p3,fast_t1,fast_t2,fast_t3,rsi_p1,rsi_p2,rsi_p3,rsi_t1,rsi_t2,rsi_t3,macd_dist_p1_date,macd_dist_p2_date,macd_dist_p3_date,macd_dist_t1_date,macd_dist_t2_date,macd_dist_t3_date,macd_p1_date,macd_p2_date,macd_p3_date,macd_t1_date,macd_t2_date,macd_t3_date,macd_p1_days,macd_p2_days,macd_p3_days,macd_t1_days,macd_t2_days,macd_t3_days,slow_p1_date,slow_p2_date,slow_p3_date,slow_t1_date,slow_t2_date,slow_t3_date,fast_p1_date,fast_p2_date,fast_p3_date,fast_t1_date,fast_t2_date,fast_t3_date,rsi_p1_date,rsi_p2_date,rsi_p3_date,rsi_t1_date,rsi_t2_date,rsi_t3_date,vol_n2p,vol_p2p,vol_p2n,vol_n2n,life5,life4,life3,life2,life1,vol_hist5,vol_hist4,vol_hist3,vol_hist2,vol_hist1,smooth_close,smooth_troughs,smooth_peaks,PnL1,PnL2,PnL3,PnL4,PnL5,PnL6,PnL7,PnL8,PnL1_days,PnL2_days,PnL3_days,PnL4_days,PnL5_days,PnL6_days,PnL7_days,PnL8_days,buy_call,sell_call
2004-04-23,PPG,,,,,,,0,0,0,,0,0,0,,,0.4469,0.4469,0.4469,0.4469,0.0,,,,,,0.0,,,,,,0.0,,,,,,0.0,0.0,0.0,,,,0.4469,0.4469,0.0,0.0,0.0,0.0,,,,,,,,,,,,,,,,,,,,,,,,,,,0.0552,0.0552,,,,,,,0.15,,,,,,0.0,0.0,0.0,0.0,0.0,0.0,1999-01-01,1999-01-01,1999-01-01,1999-01-01,1999-01-01,1999-01-01,0.0,0.0,0.0,0.0,0.0,0.0,1999-01-01,1999-01-01,1999-01-01,1999-01-01,1999-01-01,1999-01-01,0.0,0.0,0.0,100.0,100.0,100.0,1999-01-01,1999-01-01,1999-01-01,1999-01-01,1999-01-01,1999-01-01,0.0,0.0,0.0,100.0,100.0,100.0,1999-01-01,1999-01-01,1999-01-01,1999-01-01,1999-01-01,1999-01-01,0.0,0.0,0.0,100.0,100.0,100.0,1999-01-01,1999-01-01,1999-01-01,1999-01-01,1999-01-01,1999-01-01,0.0,0.0,0.0,100.0,100.0,100.0,1999-01-01,1999-01-01,1999-01-01,1999-01-01,1999-01-01,1999-01-01,0.0,0.0,0.0,100.0,100.0,100.0,1999-01-01,1999-01-01,1999-01-01,1999-01-01,1999-01-01,1999-01-01,0.0,0.0,0.0,100.0,100.0,100.0,1999-01-01,1999-01-01,1999-01-01,1999-01-01,1999-01-01,1999-01-01,0.0,0.0,0.0,100.0,100.0,100.0,1999-01-01,1999-01-01,1999-01-01,1999-01-01,1999-01-01,1999-01-01,0.0,0.0,0.0,100.0,100.0,100.0,1999-01-01,1999-01-01,1999-01-01,1999-01-01,1999-01-01,1999-01-01,0,0,15733000,0.0,0.0,1573300000.0,0.0,0.0,0.0,100.0,100.0,100.0,0.0,0.0,0.0,100.0,100.0,100.0,0.0,0.0,0.0,100.0,100.0,100.0,0.0,0.0,0.0,100.0,100.0,100.0,0.0,0.0,0.0,100.0,100.0,100.0,0.0,0.0,0.0,100.0,100.0,100.0,1999-01-01,1999-01-01,1999-01-01,1999-01-01,1999-01-01,1999-01-01,1999-01-01,1999-01-01,1999-01-01,1999-01-01,1999-01-01,1999-01-01,0,0,0,0,0,0,1999-01-01,1999-01-01,1999-01-01,1999-01-01,1999-01-01,1999-01-01,1999-01-01,1999-01-01,1999-01-01,1999-01-01,1999-01-01,1999-01-01,1999-01-01,1999-01-01,1999-01-01,1999-01-01,1999-01-01,1999-01-01,,,,,Life.Empty,Life.Empty,Life.Empty,Life.Empty,Life.BullEnd,,,,,,0.4356,,,-13.45,0.0,-0.53,0.0,-1.87,0.54,-2.16,7.18,30.0,5.0,10.0,5.0,15.0,10.0,10.0,15.0,,
2004-04-30,PPG,,,,,,,0,0,0,,0,0,0,,,0.43183,0.43868,0.4426,0.4447,-0.00338,,,,,,-0.00322,,,,,,-0.0048,,,,,,-0.00142,0.00016,-0.00158,,,,0.43995,0.44355,-0.00361,-0.00199,-0.00135,-0.00064,0.0,,,,,-0.0,-0.0452,,,,,,,,,,,,,,,,,,,,0.0552,0.0536,,,,,,,,,-0.15,,,,0.0,0.0,0.0,0.0,0.0,0.0,1999-01-01,1999-01-01,1999-01-01,1999-01-01,1999-01-01,1999-01-01,0.0,0.0,0.0,0.0,0.0,0.0,1999-01-01,1999-01-01,1999-01-01,1999-01-01,1999-01-01,1999-01-01,0.0,0.0,0.0,100.0,100.0,100.0,1999-01-01,1999-01-01,1999-01-01,1999-01-01,1999-01-01,1999-01-01,0.0,0.0,0.0,100.0,100.0,100.0,1999-01-01,1999-01-01,1999-01-01,1999-01-01,1999-01-01,1999-01-01,0.0,0.0,0.0,100.0,100.0,100.0,1999-01-01,1999-01-01,1999-01-01,1999-01-01,1999-01-01,1999-01-01,0.0,0.0,0.0,100.0,100.0,100.0,1999-01-01,1999-01-01,1999-01-01,1999-01-01,1999-01-01,1999-01-01,0.0,0.0,0.0,100.0,100.0,100.0,1999-01-01,1999-01-01,1999-01-01,1999-01-01,1999-01-01,1999-01-01,0.0,0.0,0.0,100.0,100.0,100.0,1999-01-01,1999-01-01,1999-01-01,1999-01-01,1999-01-01,1999-01-01,0.0,0.0,0.0,100.0,100.0,100.0,1999-01-01,1999-01-01,1999-01-01,1999-01-01,1999-01-01,1999-01-01,0.0,0.0,0.0,100.0,100.0,100.0,1999-01-01,1999-01-01,1999-01-01,1999-01-01,1999-01-01,1999-01-01,0,15733000,9012700,0.0,1573300000.0,57.29,0.0,0.0,0.0,100.0,100.0,100.0,0.0,0.0,0.0,100.0,100.0,100.0,0.0,0.0,0.0,100.0,100.0,100.0,0.0,0.0,0.0,100.0,100.0,100.0,0.0,0.0,0.0,100.0,100.0,100.0,0.0,0.0,0.0,100.0,100.0,100.0,1999-01-01,1999-01-01,1999-01-01,1999-01-01,1999-01-01,1999-01-01,1999-01-01,1999-01-01,1999-01-01,1999-01-01,1999-01-01,1999-01-01,0,0,0,0,0,0,1999-01-01,1999-01-01,1999-01-01,1999-01-01,1999-01-01,1999-01-01,1999-01-01,1999-01-01,1999-01-01,1999-01-01,1999-01-01,1999-01-01,1999-01-01,1999-01-01,1999-01-01,1999-01-01,1999-01-01,1999-01-01,,,,,Life.Empty,Life.Empty,Life.Empty,Life.BullEnd,Life.Bear,,,,,p2p,0.41172,,,-8.43,0.0,-0.53,0.0,-1.87,0.54,-2.16,7.18,25.0,5.0,10.0,5.0,15.0,10.0,10.0,15.0,,
2004-05-07,PPG,,,,,,,0,0,0,,0,0,0,,,0.42009,0.43103,0.43821,0.44235,-0.00671,,,,,,-0.00637,,,,,,-0.00951,,,,,,-0.0028,0.00034,-0.00314,,,,0.43328,0.44007,-0.0068,-0.00395,-0.00269,-0.00126,-0.00064,,,,,-0.0,-0.0051,,,,,,,,,,,,,,,,,,,,0.05234,0.052,,,,,,,,,-0.15,,,,0.0,0.0,0.0,0.0,0.0,0.0,1999-01-01,1999-01-01,1999-01-01,1999-01-01,1999-01-01,1999-01-01,0.0,0.0,0.0,0.0,0.0,0.0,1999-01-01,1999-01-01,1999-01-01,1999-01-01,1999-01-01,1999-01-01,0.0,0.0,0.0,100.0,100.0,100.0,1999-01-01,1999-01-01,1999-01-01,1999-01-01,1999-01-01,1999-01-01,0.0,0.0,0.0,100.0,100.0,100.0,1999-01-01,1999-01-01,1999-01-01,1999-01-01,1999-01-01,1999-01-01,0.0,0.0,0.0,100.0,100.0,100.0,1999-01-01,1999-01-01,1999-01-01,1999-01-01,1999-01-01,1999-01-01,0.0,0.0,0.0,100.0,100.0,100.0,1999-01-01,1999-01-01,1999-01-01,1999-01-01,1999-01-01,1999-01-01,0.0,0.0,0.0,100.0,100.0,100.0,1999-01-01,1999-01-01,1999-01-01,1999-01-01,1999-01-01,1999-01-01,0.0,0.0,0.0,100.0,100.0,100.0,1999-01-01,1999-01-01,1999-01-01,1999-01-01,1999-01-01,1999-01-01,0.0,0.0,0.0,100.0,100.0,100.0,1999-01-01,1999-01-01,1999-01-01,1999-01-01,1999-01-01,1999-01-01,0.0,0.0,0.0,100.0,100.0,100.0,1999-01-01,1999-01-01,1999-01-01,1999-01-01,1999-01-01,1999-01-01,15733000,9012700,2413300,1573300000.0,57.29,9.75,0.0,0.0,0.0,100.0,100.0,100.0,0.0,0.0,0.0,100.0,100.0,100.0,0.0,0.0,0.0,100.0,100.0,100.0,0.0,0.0,0.0,100.0,100.0,100.0,0.0,0.0,0.0,100.0,100.0,100.0,0.0,0.0,0.0,100.0,100.0,100.0,1999-01-01,1999-01-01,1999-01-01,1999-01-01,1999-01-01,1999-01-01,1999-01-01,1999-01-01,1999-01-01,1999-01-01,1999-01-01,1999-01-01,0,0,0,0,0,0,1999-01-01,1999-01-01,1999-01-01,1999-01-01,1999-01-01,1999-01-01,1999-01-01,1999-01-01,1999-01-01,1999-01-01,1999-01-01,1999-01-01,1999-01-01,1999-01-01,1999-01-01,1999-01-01,1999-01-01,1999-01-01,,,,,Life.Empty,Life.Empty,Life.Empty,Life.BullEnd,Life.Bear,,,,p2p,,0.39662,,,-4.95,0.0,-0.53,0.0,-1.87,0.54,-2.16,7.18,20.0,5.0,10.0,5.0,15.0,10.0,10.0,15.0,,
2004-05-14,PPG,,,,,,,0,0,0,,0,0,0,,,0.41059,0.42386,0.43378,0.43987,-0.00994,,,,,,-0.00938,,,,,,-0.01405,,,,,,-0.0041,0.00056,-0.00467,,,,0.42687,0.43648,-0.00962,-0.00584,-0.004,-0.00184,-0.00126,,,,,-0.0,-0.005,,,,,,,,,,,,,,,,,,,,0.05003,0.05041,,,,,,,,,-0.15,,,,0.0,0.0,0.0,0.0,0.0,0.0,1999-01-01,1999-01-01,1999-01-01,1999-01-01,1999-01-01,1999-01-01,0.0,0.0,0.0,0.0,0.0,0.0,1999-01-01,1999-01-01,1999-01-01,1999-01-01,1999-01-01,1999-01-01,0.0,0.0,0.0,100.0,100.0,100.0,1999-01-01,1999-01-01,1999-01-01,1999-01-01,1999-01-01,1999-01-01,0.0,0.0,0.0,100.0,100.0,100.0,1999-01-01,1999-01-01,1999-01-01,1999-01-01,1999-01-01,1999-01-01,0.0,0.0,0.0,100.0,100.0,100.0,1999-01-01,1999-01-01,1999-01-01,1999-01-01,1999-01-01,1999-01-01,0.0,0.0,0.0,100.0,100.0,100.0,1999-01-01,1999-01-01,1999-01-01,1999-01-01,1999-01-01,1999-01-01,0.0,0.0,0.0,100.0,100.0,100.0,1999-01-01,1999-01-01,1999-01-01,1999-01-01,1999-01-01,1999-01-01,0.0,0.0,0.0,100.0,100.0,100.0,1999-01-01,1999-01-01,1999-01-01,1999-01-01,1999-01-01,1999-01-01,0.0,0.0,0.0,100.0,100.0,100.0,1999-01-01,1999-01-01,1999-01-01,1999-01-01,1999-01-01,1999-01-01,0.0,0.0,0.0,100.0,100.0,100.0,1999-01-01,1999-01-01,1999-01-01,1999-01-01,1999-01-01,1999-01-01,9012700,2413300,1786100,57.29,9.75,-51.35,0.0,0.0,0.0,100.0,100.0,100.0,0.0,0.0,0.0,100.0,100.0,100.0,0.0,0.0,0.0,100.0,100.0,100.0,0.0,0.0,0.0,100.0,100.0,100.0,0.0,0.0,0.0,100.0,100.0,100.0,0.0,0.0,0.0,100.0,100.0,100.0,1999-01-01,1999-01-01,1999-01-01,1999-01-01,1999-01-01,1999-01-01,1999-01-01,1999-01-01,1999-01-01,1999-01-01,1999-01-01,1999-01-01,0,0,0,0,0,0,1999-01-01,1999-01-01,1999-01-01,1999-01-01,1999-01-01,1999-01-01,1999-01-01,1999-01-01,1999-01-01,1999-01-01,1999-01-01,1999-01-01,1999-01-01,1999-01-01,1999-01-01,1999-01-01,1999-01-01,1999-01-01,,,-1786100.0,,Life.Empty,Life.Empty,Life.Empty,Life.BullEnd,Life.Bear,,,p2p,,p2n,0.38973,,,-3.27,0.0,-0.53,0.0,-1.87,0.54,-2.16,7.18,15.0,5.0,10.0,5.0,15.0,10.0,10.0,15.0,,
2004-05-21,PPG,,,,,,,0,0,0,,0,0,0,,,0.4001,0.41572,0.42857,0.43691,-0.01303,,,,,,-0.01218,,,,,,-0.01833,,,,,,-0.00529,0.00086,-0.00615,,,,0.41952,0.43223,-0.01272,-0.00765,-0.0053,-0.00235,-0.00184,,,,,-0.0,-0.0125,,,,,,,,,,,,,,,,,,,,0.0479,0.04884,,,,,,,,,-0.15,,,,0.0,0.0,0.0,0.0,0.0,0.0,1999-01-01,1999-01-01,1999-01-01,1999-01-01,1999-01-01,1999-01-01,0.0,0.0,0.0,0.0,0.0,0.0,1999-01-01,1999-01-01,1999-01-01,1999-01-01,1999-01-01,1999-01-01,0.0,0.0,0.0,100.0,100.0,100.0,1999-01-01,1999-01-01,1999-01-01,1999-01-01,1999-01-01,1999-01-01,0.0,0.0,0.0,100.0,100.0,100.0,1999-01-01,1999-01-01,1999-01-01,1999-01-01,1999-01-01,1999-01-01,0.0,0.0,0.0,100.0,100.0,100.0,1999-01-01,1999-01-01,1999-01-01,1999-01-01,1999-01-01,1999-01-01,0.0,0.0,0.0,100.0,100.0,100.0,1999-01-01,1999-01-01,1999-01-01,1999-01-01,1999-01-01,1999-01-01,0.0,0.0,0.0,100.0,100.0,100.0,1999-01-01,1999-01-01,1999-01-01,1999-01-01,1999-01-01,1999-01-01,0.0,0.0,0.0,100.0,100.0,100.0,1999-01-01,1999-01-01,1999-01-01,1999-01-01,1999-01-01,1999-01-01,0.0,0.0,0.0,100.0,100.0,100.0,1999-01-01,1999-01-01,1999-01-01,1999-01-01,1999-01-01,1999-01-01,0.0,0.0,0.0,100.0,100.0,100.0,1999-01-01,1999-01-01,1999-01-01,1999-01-01,1999-01-01,1999-01-01,2413300,1786100,1684300,9.75,-51.35,-55.47,0.0,0.0,0.0,100.0,100.0,100.0,0.0,0.0,0.0,100.0,100.0,100.0,0.0,0.0,0.0,100.0,100.0,100.0,0.0,0.0,0.0,100.0,100.0,100.0,0.0,0.0,0.0,100.0,100.0,100.0,0.0,0.0,0.0,100.0,100.0,100.0,1999-01-01,1999-01-01,1999-01-01,1999-01-01,1999-01-01,1999-01-01,1999-01-01,1999-01-01,1999-01-01,1999-01-01,1999-01-01,1999-01-01,0,0,0,0,0,0,1999-01-01,1999-01-01,1999-01-01,1999-01-01,1999-01-01,1999-01-01,1999-01-01,1999-01-01,1999-01-01,1999-01-01,1999-01-01,1999-01-01,1999-01-01,1999-01-01,1999-01-01,1999-01-01,1999-01-01,1999-01-01,,,,,Life.Empty,Life.Empty,Life.Empty,Life.BullEnd,Life.Bear,,p2p,,p2n,,0.3816,,,-1.21,0.0,-0.53,0.0,-1.87,0.54,-2.16,7.18,10.0,5.0,10.0,5.0,15.0,10.0,10.0,15.0,,
2004-05-28,PPG,,,,,,,0,0,0,,0,0,0,,,0.39226,0.40861,0.42362,0.43397,-0.01594,,,,,,-0.0147,,,,,,-0.02227,,,,,,-0.00634,0.00124,-0.00758,,,,0.41291,0.42811,-0.0152,-0.00933,-0.00655,-0.00279,-0.00235,,,,,-0.0,-0.0025,,,,,,,,,,,,,,,,,,,,0.0452,0.04728,,,,,,,,,-0.15,,,,0.0,0.0,0.0,0.0,0.0,0.0,1999-01-01,1999-01-01,1999-01-01,1999-01-01,1999-01-01,1999-01-01,0.0,0.0,0.0,0.0,0.0,0.0,1999-01-01,1999-01-01,1999-01-01,1999-01-01,1999-01-01,1999-01-01,0.0,0.0,0.0,100.0,100.0,100.0,1999-01-01,1999-01-01,1999-01-01,1999-01-01,1999-01-01,1999-01-01,0.0,0.0,0.0,100.0,100.0,100.0,1999-01-01,1999-01-01,1999-01-01,1999-01-01,1999-01-01,1999-01-01,0.0,0.0,0.0,100.0,100.0,100.0,1999-01-01,1999-01-01,1999-01-01,1999-01-01,1999-01-01,1999-01-01,0.0,0.0,0.0,100.0,100.0,100.0,1999-01-01,1999-01-01,1999-01-01,1999-01-01,1999-01-01,1999-01-01,0.0,0.0,0.0,100.0,100.0,100.0,1999-01-01,1999-01-01,1999-01-01,1999-01-01,1999-01-01,1999-01-01,0.0,0.0,0.0,100.0,100.0,100.0,1999-01-01,1999-01-01,1999-01-01,1999-01-01,1999-01-01,1999-01-01,0.0,0.0,0.0,100.0,100.0,100.0,1999-01-01,1999-01-01,1999-01-01,1999-01-01,1999-01-01,1999-01-01,0.0,0.0,0.0,100.0,100.0,100.0,1999-01-01,1999-01-01,1999-01-01,1999-01-01,1999-01-01,1999-01-01,1786100,1684300,727700,-51.35,-55.47,-28.65,0.0,0.0,0.0,100.0,100.0,100.0,0.0,0.0,0.0,100.0,100.0,100.0,0.0,0.0,0.0,100.0,100.0,100.0,0.0,0.0,0.0,100.0,100.0,100.0,0.0,0.0,0.0,100.0,100.0,100.0,0.0,0.0,0.0,100.0,100.0,100.0,1999-01-01,1999-01-01,1999-01-01,1999-01-01,1999-01-01,1999-01-01,1999-01-01,1999-01-01,1999-01-01,1999-01-01,1999-01-01,1999-01-01,0,0,0,0,0,0,1999-01-01,1999-01-01,1999-01-01,1999-01-01,1999-01-01,1999-01-01,1999-01-01,1999-01-01,1999-01-01,1999-01-01,1999-01-01,1999-01-01,1999-01-01,1999-01-01,1999-01-01,1999-01-01,1999-01-01,1999-01-01,,,,,Life.Empty,Life.Empty,Life.Empty,Life.BullEnd,Life.Bear,p2p,,p2n,,,0.37722,,,-0.06,0.0,-0.53,0.0,-1.87,0.54,-2.16,7.18,5.0,5.0,10.0,5.0,15.0,10.0,10.0,15.0,,
2004-06-04,PPG,,,,,,,0,0,0,,0,0,0,,,0.38704,0.40279,0.41914,0.43117,-0.01861,,,,,,-0.01688,,,,,,-0.02581,,,,,,-0.0072,0.00172,-0.00893,,,,0.40733,0.4243,-0.01697,-0.01087,-0.00776,-0.00312,-0.00279,,,,,0.0,0.0,,,,,,,,,,,,,,11.37878,,,,,,0.04287,0.04574,,,,,,,,,-0.15,,,,0.0,0.0,0.0,0.0,0.0,0.0,1999-01-01,1999-01-01,1999-01-01,1999-01-01,1999-01-01,1999-01-01,0.0,0.0,0.0,0.0,0.0,0.0,1999-01-01,1999-01-01,1999-01-01,1999-01-01,1999-01-01,1999-01-01,0.0,0.0,0.0,100.0,100.0,100.0,1999-01-01,1999-01-01,1999-01-01,1999-01-01,1999-01-01,1999-01-01,0.0,0.0,0.0,100.0,100.0,100.0,1999-01-01,1999-01-01,1999-01-01,1999-01-01,1999-01-01,1999-01-01,0.0,0.0,0.0,100.0,100.0,100.0,1999-01-01,1999-01-01,1999-01-01,1999-01-01,1999-01-01,1999-01-01,0.0,0.0,0.0,100.0,100.0,100.0,1999-01-01,1999-01-01,1999-01-01,1999-01-01,1999-01-01,1999-01-01,0.0,0.0,0.0,100.0,100.0,100.0,1999-01-01,1999-01-01,1999-01-01,1999-01-01,1999-01-01,1999-01-01,0.0,0.0,0.0,100.0,100.0,100.0,1999-01-01,1999-01-01,1999-01-01,1999-01-01,1999-01-01,1999-01-01,0.0,0.0,0.0,100.0,100.0,100.0,1999-01-01,1999-01-01,1999-01-01,1999-01-01,1999-01-01,1999-01-01,0.0,0.0,0.0,100.0,100.0,100.0,1999-01-01,1999-01-01,1999-01-01,1999-01-01,1999-01-01,1999-01-01,1684300,727700,256600,-55.47,-28.65,-36.43,0.0,0.0,0.0,100.0,100.0,100.0,0.0,0.0,0.0,100.0,100.0,100.0,0.0,0.0,0.0,100.0,100.0,100.0,0.0,0.0,0.0,100.0,100.0,100.0,0.0,0.0,0.0,100.0,100.0,100.0,0.0,0.0,0.0,100.0,100.0,100.0,1999-01-01,1999-01-01,1999-01-01,1999-01-01,1999-01-01,1999-01-01,1999-01-01,1999-01-01,1999-01-01,1999-01-01,1999-01-01,1999-01-01,0,0,0,0,0,0,1999-01-01,1999-01-01,1999-01-01,1999-01-01,1999-01-01,1999-01-01,1999-01-01,1999-01-01,1999-01-01,1999-01-01,1999-01-01,1999-01-01,1999-01-01,1999-01-01,1999-01-01,1999-01-01,1999-01-01,1999-01-01,,,,,Life.Empty,Life.Empty,Life.Empty,Life.BullEnd,Life.Bear,,p2n,,,,0.3766,0.377,,0.11,-0.53,0.0,-1.87,0.54,-2.16,7.18,-4.64,5.0,10.0,5.0,15.0,10.0,10.0,15.0,20.0,,
2004-06-11,PPG,,,,,,,0,0,0,,0,0,0,0.377,,0.38356,0.39803,0.41509,0.42851,-0.02101,,,,,,-0.0187,,,,,,-0.02888,,,,,,-0.00787,0.00231,-0.01019,,,,0.4026,0.42076,-0.01816,-0.01225,-0.0089,-0.00334,-0.00312,,,,,0.0,0.0,,,,,,,,,,,,,,19.0034,,,,,,0.04053,0.04422,,,,,,,,,-0.15,,,,0.0,0.0,0.0,0.0,0.0,0.0,1999-01-01,1999-01-01,1999-01-01,1999-01-01,1999-01-01,1999-01-01,0.0,0.0,0.0,0.377,0.0,0.0,1999-01-01,1999-01-01,1999-01-01,2004-06-11,1999-01-01,1999-01-01,0.0,0.0,0.0,100.0,100.0,100.0,1999-01-01,1999-01-01,1999-01-01,1999-01-01,1999-01-01,1999-01-01,0.0,0.0,0.0,100.0,100.0,100.0,1999-01-01,1999-01-01,1999-01-01,1999-01-01,1999-01-01,1999-01-01,0.0,0.0,0.0,100.0,100.0,100.0,1999-01-01,1999-01-01,1999-01-01,1999-01-01,1999-01-01,1999-01-01,0.0,0.0,0.0,100.0,100.0,100.0,1999-01-01,1999-01-01,1999-01-01,1999-01-01,1999-01-01,1999-01-01,0.0,0.0,0.0,100.0,100.0,100.0,1999-01-01,1999-01-01,1999-01-01,1999-01-01,1999-01-01,1999-01-01,0.0,0.0,0.0,100.0,100.0,100.0,1999-01-01,1999-01-01,1999-01-01,1999-01-01,1999-01-01,1999-01-01,0.0,0.0,0.0,100.0,100.0,100.0,1999-01-01,1999-01-01,1999-01-01,1999-01-01,1999-01-01,1999-01-01,0.0,0.0,0.0,100.0,100.0,100.0,1999-01-01,1999-01-01,1999-01-01,1999-01-01,1999-01-01,1999-01-01,727700,256600,166000,-28.65,-36.43,-56.89,0.0,0.0,0.0,100.0,100.0,100.0,0.0,0.0,0.0,100.0,100.0,100.0,0.0,0.0,0.0,100.0,100.0,100.0,0.0,0.0,0.0,100.0,100.0,100.0,0.0,0.0,0.0,100.0,100.0,100.0,0.0,0.0,0.0,100.0,100.0,100.0,1999-01-01,1999-01-01,1999-01-01,1999-01-01,1999-01-01,1999-01-01,1999-01-01,1999-01-01,1999-01-01,1999-01-01,1999-01-01,1999-01-01,0,0,0,0,0,0,1999-01-01,1999-01-01,1999-01-01,1999-01-01,1999-01-01,1999-01-01,1999-01-01,1999-01-01,1999-01-01,1999-01-01,1999-01-01,1999-01-01,1999-01-01,1999-01-01,1999-01-01,1999-01-01,1999-01-01,1999-01-01,,,,,Life.Empty,Life.Empty,Life.Empty,Life.BullEnd,Life.Bear,p2n,,,,,0.37722,,0.377,-0.59,0.0,-1.87,0.54,-2.16,7.18,-4.64,1.08,10.0,5.0,15.0,10.0,10.0,15.0,20.0,10.0,,
2004-06-18,PPG,,,,,,,0,0,0,,0,0,0,,0.379,0.38207,0.39459,0.41166,0.4261,-0.02312,,,,,,-0.0201,,,,,,-0.03145,,,,,,-0.00834,0.00302,-0.01135,,,,0.39898,0.41768,-0.01869,-0.01343,-0.00998,-0.00345,-0.00334,,,-0.003,,0.0025,0.0,,,,,,,,,,,,,,33.74584,21.37601,,,,,0.03871,0.04273,,,,,,,,,-0.15,,,,0.0,0.0,0.0,0.0,0.0,0.0,1999-01-01,1999-01-01,1999-01-01,1999-01-01,1999-01-01,1999-01-01,0.379,0.0,0.0,0.377,0.0,0.0,2004-06-18,1999-01-01,1999-01-01,2004-06-11,1999-01-01,1999-01-01,0.0,0.0,0.0,100.0,100.0,100.0,1999-01-01,1999-01-01,1999-01-01,1999-01-01,1999-01-01,1999-01-01,0.0,0.0,0.0,100.0,100.0,100.0,1999-01-01,1999-01-01,1999-01-01,1999-01-01,1999-01-01,1999-01-01,0.0,0.0,0.0,100.0,100.0,100.0,1999-01-01,1999-01-01,1999-01-01,1999-01-01,1999-01-01,1999-01-01,0.0,0.0,0.0,100.0,100.0,100.0,1999-01-01,1999-01-01,1999-01-01,1999-01-01,1999-01-01,1999-01-01,0.0,0.0,0.0,100.0,100.0,100.0,1999-01-01,1999-01-01,1999-01-01,1999-01-01,1999-01-01,1999-01-01,0.0,0.0,0.0,100.0,100.0,100.0,1999-01-01,1999-01-01,1999-01-01,1999-01-01,1999-01-01,1999-01-01,0.0,0.0,0.0,100.0,100.0,100.0,1999-01-01,1999-01-01,1999-01-01,1999-01-01,1999-01-01,1999-01-01,0.0,0.0,0.0,100.0,100.0,100.0,1999-01-01,1999-01-01,1999-01-01,1999-01-01,1999-01-01,1999-01-01,256600,166000,158300,-36.43,-56.89,-49.5,0.0,0.0,0.0,100.0,100.0,100.0,0.0,0.0,0.0,-0.003,100.0,100.0,0.0,0.0,0.0,100.0,100.0,100.0,0.0,0.0,0.0,100.0,100.0,100.0,0.0,0.0,0.0,100.0,100.0,100.0,0.0,0.0,0.0,100.0,100.0,100.0,1999-01-01,1999-01-01,1999-01-01,2004-06-18,1999-01-01,1999-01-01,1999-01-01,1999-01-01,1999-01-01,1999-01-01,1999-01-01,1999-01-01,0,0,0,0,0,0,1999-01-01,1999-01-01,1999-01-01,1999-01-01,1999-01-01,1999-01-01,1999-01-01,1999-01-01,1999-01-01,1999-01-01,1999-01-01,1999-01-01,1999-01-01,1999-01-01,1999-01-01,1999-01-01,1999-01-01,1999-01-01,,,,,Life.Empty,Life.Empty,Life.Empty,Life.BullEnd,Life.Bear,,,,,,0.37658,,,-0.42,0.0,-1.87,0.54,-2.16,7.18,-4.64,1.08,5.0,5.0,15.0,10.0,10.0,15.0,20.0,10.0,,
2004-06-25,PPG,,,,,,,0,0,0,,0,0,0,0.372,,0.37855,0.39039,0.40784,0.42343,-0.02492,,,,,,-0.0211,,,,,,-0.0335,,,,,,-0.00858,0.00382,-0.01241,,,,0.39476,0.41426,-0.0195,-0.01442,-0.01099,-0.00344,-0.00345,,,,,-0.0,-0.0076,,,,,,,,,,,,,,37.33499,30.02808,,,,,0.03667,0.04127,,,,,,,,,-0.15,,,,0.0,0.0,0.0,0.0,0.0,0.0,1999-01-01,1999-01-01,1999-01-01,1999-01-01,1999-01-01,1999-01-01,0.379,0.0,0.0,0.372,0.377,0.0,2004-06-18,1999-01-01,1999-01-01,2004-06-25,2004-06-11,1999-01-01,0.0,0.0,0.0,100.0,100.0,100.0,1999-01-01,1999-01-01,1999-01-01,1999-01-01,1999-01-01,1999-01-01,0.0,0.0,0.0,100.0,100.0,100.0,1999-01-01,1999-01-01,1999-01-01,1999-01-01,1999-01-01,1999-01-01,0.0,0.0,0.0,100.0,100.0,100.0,1999-01-01,1999-01-01,1999-01-01,1999-01-01,1999-01-01,1999-01-01,0.0,0.0,0.0,100.0,100.0,100.0,1999-01-01,1999-01-01,1999-01-01,1999-01-01,1999-01-01,1999-01-01,0.0,0.0,0.0,100.0,100.0,100.0,1999-01-01,1999-01-01,1999-01-01,1999-01-01,1999-01-01,1999-01-01,0.0,0.0,0.0,100.0,100.0,100.0,1999-01-01,1999-01-01,1999-01-01,1999-01-01,1999-01-01,1999-01-01,0.0,0.0,0.0,100.0,100.0,100.0,1999-01-01,1999-01-01,1999-01-01,1999-01-01,1999-01-01,1999-01-01,0.0,0.0,0.0,100.0,100.0,100.0,1999-01-01,1999-01-01,1999-01-01,1999-01-01,1999-01-01,1999-01-01,166000,158300,172000,-56.89,-49.5,-14.56,0.0,0.0,0.0,100.0,100.0,100.0,0.0,0.0,0.0,-0.003,100.0,100.0,0.0,0.0,0.0,100.0,100.0,100.0,0.0,0.0,0.0,100.0,100.0,100.0,0.0,0.0,0.0,100.0,100.0,100.0,0.0,0.0,0.0,100.0,100.0,100.0,1999-01-01,1999-01-01,1999-01-01,2004-06-18,1999-01-01,1999-01-01,1999-01-01,1999-01-01,1999-01-01,1999-01-01,1999-01-01,1999-01-01,0,0,0,0,0,0,1999-01-01,1999-01-01,1999-01-01,1999-01-01,1999-01-01,1999-01-01,1999-01-01,1999-01-01,1999-01-01,1999-01-01,1999-01-01,1999-01-01,1999-01-01,1999-01-01,1999-01-01,1999-01-01,1999-01-01,1999-01-01,,,,,Life.Empty,Life.Empty,Life.Empty,Life.BullEnd,Life.Bear,,,,,,0.37468,0.375,,0.09,-1.87,0.54,-2.16,7.18,-4.64,1.08,-1.87,5.0,15.0,10.0,10.0,15.0,20.0,10.0,10.0,,
2004-07-02,PPG,,,,,,,0,0,0,,0,0,0,,,0.3779,0.38788,0.40486,0.42115,-0.0264,,,,,,-0.02168,,,,,,-0.03503,,,,,,-0.00863,0.00472,-0.01335,,,,0.39196,0.41147,-0.0195,-0.01521,-0.0119,-0.00331,-0.00344,,,,,0.0051,0.0,,,,,,,,,,,,,,52.81205,41.29763,,,,,0.03513,0.03984,,,,,,,,,-0.15,,,,0.0,0.0,0.0,0.0,0.0,0.0,1999-01-01,1999-01-01,1999-01-01,1999-01-01,1999-01-01,1999-01-01,0.379,0.0,0.0,0.372,0.377,0.0,2004-06-18,1999-01-01,1999-01-01,2004-06-25,2004-06-11,1999-01-01,0.0,0.0,0.0,100.0,100.0,100.0,1999-01-01,1999-01-01,1999-01-01,1999-01-01,1999-01-01,1999-01-01,0.0,0.0,0.0,100.0,100.0,100.0,1999-01-01,1999-01-01,1999-01-01,1999-01-01,1999-01-01,1999-01-01,0.0,0.0,0.0,100.0,100.0,100.0,1999-01-01,1999-01-01,1999-01-01,1999-01-01,1999-01-01,1999-01-01,0.0,0.0,0.0,100.0,100.0,100.0,1999-01-01,1999-01-01,1999-01-01,1999-01-01,1999-01-01,1999-01-01,0.0,0.0,0.0,100.0,100.0,100.0,1999-01-01,1999-01-01,1999-01-01,1999-01-01,1999-01-01,1999-01-01,0.0,0.0,0.0,100.0,100.0,100.0,1999-01-01,1999-01-01,1999-01-01,1999-01-01,1999-01-01,1999-01-01,0.0,0.0,0.0,100.0,100.0,100.0,1999-01-01,1999-01-01,1999-01-01,1999-01-01,1999-01-01,1999-01-01,0.0,0.0,0.0,100.0,100.0,100.0,1999-01-01,1999-01-01,1999-01-01,1999-01-01,1999-01-01,1999-01-01,158300,172000,289000,-49.5,-14.56,24.78,0.0,0.0,0.0,100.0,100.0,100.0,0.0,0.0,0.0,-0.003,100.0,100.0,0.0,0.0,0.0,100.0,100.0,100.0,0.0,0.0,0.0,100.0,100.0,100.0,0.0,0.0,0.0,100.0,100.0,100.0,0.0,0.0,0.0,100.0,100.0,100.0,1999-01-01,1999-01-01,1999-01-01,2004-06-18,1999-01-01,1999-01-01,1999-01-01,1999-01-01,1999-01-01,1999-01-01,1999-01-01,1999-01-01,0,0,0,0,0,0,1999-01-01,1999-01-01,1999-01-01,1999-01-01,1999-01-01,1999-01-01,1999-01-01,1999-01-01,1999-01-01,1999-01-01,1999-01-01,1999-01-01,1999-01-01,1999-01-01,1999-01-01,1999-01-01,1999-01-01,1999-01-01,,,,,Life.Empty,Life.Empty,Life.Empty,Life.BullEnd,Life.Bear,,,,,,0.37532,,0.375,-1.95,0.54,-2.16,7.18,-4.64,1.08,-1.87,4.9,15.0,10.0,10.0,15.0,20.0,10.0,10.0,20.0,,
2004-07-09,PPG,,,,,,,0,0,0,,0,0,0,,0.377,0.37747,0.38583,0.40217,0.41898,-0.02756,,,,,,-0.02187,-0.022,,,,,-0.03605,,,,,,-0.00848,0.00569,-0.01417,,,,0.3896,0.40888,-0.01928,-0.0158,-0.01272,-0.00308,-0.00331,,,,,0.0,0.0,,,,,,,,,,,,,,61.12045,50.4225,,,,,0.03316,0.03845,,,,,,,,,,,-0.15,,0.0,0.0,0.0,0.0,0.0,0.0,1999-01-01,1999-01-01,1999-01-01,1999-01-01,1999-01-01,1999-01-01,0.377,0.379,0.0,0.372,0.377,0.0,2004-07-09,2004-06-18,1999-01-01,2004-06-25,2004-06-11,1999-01-01,0.0,0.0,0.0,100.0,100.0,100.0,1999-01-01,1999-01-01,1999-01-01,1999-01-01,1999-01-01,1999-01-01,0.0,0.0,0.0,100.0,100.0,100.0,1999-01-01,1999-01-01,1999-01-01,1999-01-01,1999-01-01,1999-01-01,0.0,0.0,0.0,-0.022,100.0,100.0,1999-01-01,1999-01-01,1999-01-01,2004-07-09,1999-01-01,1999-01-01,0.0,0.0,0.0,100.0,100.0,100.0,1999-01-01,1999-01-01,1999-01-01,1999-01-01,1999-01-01,1999-01-01,0.0,0.0,0.0,100.0,100.0,100.0,1999-01-01,1999-01-01,1999-01-01,1999-01-01,1999-01-01,1999-01-01,0.0,0.0,0.0,100.0,100.0,100.0,1999-01-01,1999-01-01,1999-01-01,1999-01-01,1999-01-01,1999-01-01,0.0,0.0,0.0,100.0,100.0,100.0,1999-01-01,1999-01-01,1999-01-01,1999-01-01,1999-01-01,1999-01-01,0.0,0.0,0.0,100.0,100.0,100.0,1999-01-01,1999-01-01,1999-01-01,1999-01-01,1999-01-01,1999-01-01,172000,289000,197700,-14.56,24.78,6.36,0.0,0.0,0.0,100.0,100.0,100.0,0.0,0.0,0.0,-0.003,100.0,100.0,0.0,0.0,0.0,100.0,100.0,100.0,0.0,0.0,0.0,100.0,100.0,100.0,0.0,0.0,0.0,100.0,100.0,100.0,0.0,0.0,0.0,100.0,100.0,100.0,1999-01-01,1999-01-01,1999-01-01,2004-06-18,1999-01-01,1999-01-01,1999-01-01,1999-01-01,1999-01-01,1999-01-01,1999-01-01,1999-01-01,0,0,0,0,0,0,1999-01-01,1999-01-01,1999-01-01,1999-01-01,1999-01-01,1999-01-01,1999-01-01,1999-01-01,1999-01-01,1999-01-01,1999-01-01,1999-01-01,1999-01-01,1999-01-01,1999-01-01,1999-01-01,1999-01-01,1999-01-01,,,,,Life.Empty,Life.Empty,Life.BullEnd,Life.Bear,Life.BearRecovery,,,,,,0.3747,,,-1.79,0.54,-2.16,7.18,-4.64,1.08,-1.87,4.9,10.0,10.0,10.0,15.0,20.0,10.0,10.0,20.0,,
2004-07-16,PPG,,,,,,,0,0,0,,0,0,0,,,0.37464,0.38277,0.39901,0.41654,-0.02842,,,,,,-0.02172,,,,,,-0.03659,,,,,,-0.00817,0.0067,-0.01488,,,,0.38643,0.40593,-0.0195,-0.0162,-0.01344,-0.00277,-0.00308,,,,,-0.0,-0.0076,,,,,,,,,,,,,,62.52073,58.81774,,,,,0.03133,0.03709,,,,,,,,,,,-0.15,,0.0,0.0,0.0,0.0,0.0,0.0,1999-01-01,1999-01-01,1999-01-01,1999-01-01,1999-01-01,1999-01-01,0.377,0.379,0.0,0.372,0.377,0.0,2004-07-09,2004-06-18,1999-01-01,2004-06-25,2004-06-11,1999-01-01,0.0,0.0,0.0,100.0,100.0,100.0,1999-01-01,1999-01-01,1999-01-01,1999-01-01,1999-01-01,1999-01-01,0.0,0.0,0.0,100.0,100.0,100.0,1999-01-01,1999-01-01,1999-01-01,1999-01-01,1999-01-01,1999-01-01,0.0,0.0,0.0,-0.022,100.0,100.0,1999-01-01,1999-01-01,1999-01-01,2004-07-09,1999-01-01,1999-01-01,0.0,0.0,0.0,100.0,100.0,100.0,1999-01-01,1999-01-01,1999-01-01,1999-01-01,1999-01-01,1999-01-01,0.0,0.0,0.0,100.0,100.0,100.0,1999-01-01,1999-01-01,1999-01-01,1999-01-01,1999-01-01,1999-01-01,0.0,0.0,0.0,100.0,100.0,100.0,1999-01-01,1999-01-01,1999-01-01,1999-01-01,1999-01-01,1999-01-01,0.0,0.0,0.0,100.0,100.0,100.0,1999-01-01,1999-01-01,1999-01-01,1999-01-01,1999-01-01,1999-01-01,0.0,0.0,0.0,100.0,100.0,100.0,1999-01-01,1999-01-01,1999-01-01,1999-01-01,1999-01-01,1999-01-01,289000,197700,222500,24.78,6.36,7.67,0.0,0.0,0.0,100.0,100.0,100.0,0.0,0.0,0.0,-0.003,100.0,100.0,0.0,0.0,0.0,100.0,100.0,100.0,0.0,0.0,0.0,100.0,100.0,100.0,0.0,0.0,0.0,100.0,100.0,100.0,0.0,0.0,0.0,100.0,100.0,100.0,1999-01-01,1999-01-01,1999-01-01,2004-06-18,1999-01-01,1999-01-01,1999-01-01,1999-01-01,1999-01-01,1999-01-01,1999-01-01,1999-01-01,0,0,0,0,0,0,1999-01-01,1999-01-01,1999-01-01,1999-01-01,1999-01-01,1999-01-01,1999-01-01,1999-01-01,1999-01-01,1999-01-01,1999-01-01,1999-01-01,1999-01-01,1999-01-01,1999-01-01,1999-01-01,1999-01-01,1999-01-01,,,,,Life.Empty,Life.Empty,Life.BullEnd,Life.Bear,Life.BearRecovery,,,,,p2p,0.37028,,,-0.62,0.54,-2.16,7.18,-4.64,1.08,-1.87,4.9,5.0,10.0,10.0,15.0,20.0,10.0,10.0,20.0,,
2004-07-23,PPG,,,,,,,0,0,0,,0,0,0,0.366,,0.37193,0.37981,0.39591,0.4141,-0.02898,,,,,,-0.02125,,,,,,-0.03671,-0.037,,,,,-0.00773,0.00773,-0.01546,,,,0.38336,0.40301,-0.01964,-0.01642,-0.01404,-0.00238,-0.00277,,,,,-0.0,-0.0025,,,,,,,,,,3.55619,,,,46.94897,56.86338,,,,,0.02945,0.03578,,,,,,,,,,,-0.15,,0.0,0.0,0.0,0.0,0.0,0.0,1999-01-01,1999-01-01,1999-01-01,1999-01-01,1999-01-01,1999-01-01,0.377,0.379,0.0,0.366,0.372,0.377,2004-07-09,2004-06-18,1999-01-01,2004-07-23,2004-06-25,2004-06-11,0.0,0.0,0.0,100.0,100.0,100.0,1999-01-01,1999-01-01,1999-01-01,1999-01-01,1999-01-01,1999-01-01,0.0,0.0,0.0,100.0,100.0,100.0,1999-01-01,1999-01-01,1999-01-01,1999-01-01,1999-01-01,1999-01-01,0.0,0.0,0.0,-0.022,100.0,100.0,1999-01-01,1999-01-01,1999-01-01,2004-07-09,1999-01-01,1999-01-01,0.0,0.0,0.0,-0.037,100.0,100.0,1999-01-01,1999-01-01,1999-01-01,2004-07-23,1999-01-01,1999-01-01,0.0,0.0,0.0,100.0,100.0,100.0,1999-01-01,1999-01-01,1999-01-01,1999-01-01,1999-01-01,1999-01-01,0.0,0.0,0.0,100.0,100.0,100.0,1999-01-01,1999-01-01,1999-01-01,1999-01-01,1999-01-01,1999-01-01,0.0,0.0,0.0,100.0,100.0,100.0,1999-01-01,1999-01-01,1999-01-01,1999-01-01,1999-01-01,1999-01-01,0.0,0.0,0.0,100.0,100.0,100.0,1999-01-01,1999-01-01,1999-01-01,1999-01-01,1999-01-01,1999-01-01,197700,222500,98000,6.36,7.67,-26.93,0.0,0.0,0.0,100.0,100.0,100.0,0.0,0.0,0.0,-0.003,100.0,100.0,0.0,0.0,0.0,100.0,100.0,100.0,0.0,0.0,0.0,100.0,100.0,100.0,0.0,0.0,0.0,100.0,100.0,100.0,0.0,0.0,0.0,100.0,100.0,100.0,1999-01-01,1999-01-01,1999-01-01,2004-06-18,1999-01-01,1999-01-01,1999-01-01,1999-01-01,1999-01-01,1999-01-01,1999-01-01,1999-01-01,0,0,0,0,0,0,1999-01-01,1999-01-01,1999-01-01,1999-01-01,1999-01-01,1999-01-01,1999-01-01,1999-01-01,1999-01-01,1999-01-01,1999-01-01,1999-01-01,1999-01-01,1999-01-01,1999-01-01,1999-01-01,1999-01-01,1999-01-01,,,,,Life.Empty,Life.Empty,Life.BullEnd,Life.Bear,Life.BearRecovery,,,,p2p,,0.36838,0.368,,0.44,-2.16,7.18,-4.64,1.08,-1.87,4.9,-4.16,10.0,10.0,15.0,20.0,10.0,10.0,20.0,20.0,,
2004-07-30,PPG,,,,,,,0,0,0,,0,0,0,,,0.37179,0.3783,0.39359,0.41202,-0.02927,,,,,,-0.02053,,,,,,-0.03646,,,,,,-0.00719,0.00875,-0.01593,,,,0.38154,0.40068,-0.01914,-0.01647,-0.01453,-0.00194,-0.00238,-0.016,,,,0.005,0.0,0.0009,-0.00629,0.14318,12.52485,,,,,,10.48218,,,,40.8469,50.10553,,,,,0.02771,0.03452,,,,,,,,,,,-0.15,,0.0,0.0,0.0,0.0,0.0,0.0,1999-01-01,1999-01-01,1999-01-01,1999-01-01,1999-01-01,1999-01-01,0.377,0.379,0.0,0.366,0.372,0.377,2004-07-09,2004-06-18,1999-01-01,2004-07-23,2004-06-25,2004-06-11,0.0,0.0,0.0,100.0,100.0,100.0,1999-01-01,1999-01-01,1999-01-01,1999-01-01,1999-01-01,1999-01-01,0.0,0.0,0.0,100.0,100.0,100.0,1999-01-01,1999-01-01,1999-01-01,1999-01-01,1999-01-01,1999-01-01,0.0,0.0,0.0,-0.022,100.0,100.0,1999-01-01,1999-01-01,1999-01-01,2004-07-09,1999-01-01,1999-01-01,0.0,0.0,0.0,-0.037,100.0,100.0,1999-01-01,1999-01-01,1999-01-01,2004-07-23,1999-01-01,1999-01-01,0.0,0.0,0.0,100.0,100.0,100.0,1999-01-01,1999-01-01,1999-01-01,1999-01-01,1999-01-01,1999-01-01,0.0,0.0,0.0,100.0,100.0,100.0,1999-01-01,1999-01-01,1999-01-01,1999-01-01,1999-01-01,1999-01-01,0.0,0.0,0.0,100.0,100.0,100.0,1999-01-01,1999-01-01,1999-01-01,1999-01-01,1999-01-01,1999-01-01,0.0,0.0,0.0,100.0,100.0,100.0,1999-01-01,1999-01-01,1999-01-01,1999-01-01,1999-01-01,1999-01-01,222500,98000,149400,7.67,-26.93,-9.32,0.0,0.0,0.0,-0.016,100.0,100.0,0.0,0.0,0.0,-0.003,100.0,100.0,0.0,0.0,0.0,-0.01453,100.0,100.0,0.0,0.0,0.0,100.0,100.0,100.0,0.0,0.0,0.0,100.0,100.0,100.0,0.0,0.0,0.0,100.0,100.0,100.0,1999-01-01,1999-01-01,1999-01-01,2004-06-18,1999-01-01,1999-01-01,1999-01-01,1999-01-01,1999-01-01,2004-07-30,1999-01-01,1999-01-01,0,0,0,2037,0,0,1999-01-01,1999-01-01,1999-01-01,1999-01-01,1999-01-01,1999-01-01,1999-01-01,1999-01-01,1999-01-01,1999-01-01,1999-01-01,1999-01-01,1999-01-01,1999-01-01,1999-01-01,1999-01-01,1999-01-01,1999-01-01,,,,,Life.Empty,Life.Empty,Life.BullEnd,Life.Bear,Life.BearRecovery,,,p2p,,,0.37025,,,-0.07,-2.16,7.18,-4.64,1.08,-1.87,4.9,-4.16,5.0,10.0,15.0,20.0,10.0,10.0,20.0,20.0,,
2004-08-06,PPG,,,,,,,0,0,0,,0,0,0,,0.372,0.37169,0.37706,0.39149,0.41004,-0.02932,-0.029,,,,,-0.01961,,,,,,-0.0359,,,,,,-0.00658,0.00971,-0.01629,,,,0.37999,0.39851,-0.01852,-0.01637,-0.0149,-0.00147,-0.00194,,,,,0.0,0.0,0.0009,-0.00306,0.29439,22.74368,,,,,,19.92032,11.31956,,19.92,41.6366,43.14416,,,,,0.02608,0.0333,,,,,,,,,,,,-0.15,0.0,0.0,0.0,0.0,0.0,0.0,1999-01-01,1999-01-01,1999-01-01,1999-01-01,1999-01-01,1999-01-01,0.372,0.377,0.379,0.366,0.372,0.377,2004-08-06,2004-07-09,2004-06-18,2004-07-23,2004-06-25,2004-06-11,0.0,0.0,0.0,100.0,100.0,100.0,1999-01-01,1999-01-01,1999-01-01,1999-01-01,1999-01-01,1999-01-01,0.0,0.0,0.0,-0.029,100.0,100.0,1999-01-01,1999-01-01,1999-01-01,2004-08-06,1999-01-01,1999-01-01,0.0,0.0,0.0,-0.022,100.0,100.0,1999-01-01,1999-01-01,1999-01-01,2004-07-09,1999-01-01,1999-01-01,0.0,0.0,0.0,-0.037,100.0,100.0,1999-01-01,1999-01-01,1999-01-01,2004-07-23,1999-01-01,1999-01-01,0.0,0.0,0.0,100.0,100.0,100.0,1999-01-01,1999-01-01,1999-01-01,1999-01-01,1999-01-01,1999-01-01,0.0,0.0,0.0,100.0,100.0,100.0,1999-01-01,1999-01-01,1999-01-01,1999-01-01,1999-01-01,1999-01-01,0.0,0.0,0.0,100.0,100.0,100.0,1999-01-01,1999-01-01,1999-01-01,1999-01-01,1999-01-01,1999-01-01,0.0,0.0,0.0,100.0,100.0,100.0,1999-01-01,1999-01-01,1999-01-01,1999-01-01,1999-01-01,1999-01-01,98000,149400,118900,-26.93,-9.32,-22.05,0.0,0.0,0.0,-0.016,100.0,100.0,0.0,0.0,0.0,-0.003,100.0,100.0,0.0,0.0,0.0,-0.01453,100.0,100.0,0.0,0.0,0.0,100.0,100.0,100.0,19.92,0.0,0.0,100.0,100.0,100.0,0.0,0.0,0.0,100.0,100.0,100.0,1999-01-01,1999-01-01,1999-01-01,2004-06-18,1999-01-01,1999-01-01,1999-01-01,1999-01-01,1999-01-01,2004-07-30,1999-01-01,1999-01-01,0,0,0,2037,0,0,1999-01-01,1999-01-01,1999-01-01,1999-01-01,1999-01-01,1999-01-01,2004-08-06,1999-01-01,1999-01-01,1999-01-01,1999-01-01,1999-01-01,1999-01-01,1999-01-01,1999-01-01,1999-01-01,1999-01-01,1999-01-01,,,,,Life.Empty,Life.BullEnd,Life.Bear,Life.BearRecovery,Life.BearEnd,,p2p,,,,0.37025,,0.37,-2.23,7.18,-4.64,1.08,-1.87,4.9,-4.16,4.61,10.0,15.0,20.0,10.0,10.0,20.0,20.0,10.0,,
2004-08-13,PPG,,,,,,,0,0,0,,0,0,0,,,0.36996,0.37514,0.38911,0.40792,-0.02915,,,,,,-0.01855,,,,,,-0.03509,,,,,,-0.00594,0.0106,-0.01654,,,,0.37792,0.39614,-0.01822,-0.01613,-0.01514,-0.00099,-0.00147,,,,,-0.0,-0.005,0.0009,-0.00305,0.29508,22.78481,,,,,,12.43781,14.2801,,,40.41773,40.96708,,,,,0.02476,0.03213,,,,,,,,,,,,-0.15,0.0,0.0,0.0,0.0,0.0,0.0,1999-01-01,1999-01-01,1999-01-01,1999-01-01,1999-01-01,1999-01-01,0.372,0.377,0.379,0.366,0.372,0.377,2004-08-06,2004-07-09,2004-06-18,2004-07-23,2004-06-25,2004-06-11,0.0,0.0,0.0,100.0,100.0,100.0,1999-01-01,1999-01-01,1999-01-01,1999-01-01,1999-01-01,1999-01-01,0.0,0.0,0.0,-0.029,100.0,100.0,1999-01-01,1999-01-01,1999-01-01,2004-08-06,1999-01-01,1999-01-01,0.0,0.0,0.0,-0.022,100.0,100.0,1999-01-01,1999-01-01,1999-01-01,2004-07-09,1999-01-01,1999-01-01,0.0,0.0,0.0,-0.037,100.0,100.0,1999-01-01,1999-01-01,1999-01-01,2004-07-23,1999-01-01,1999-01-01,0.0,0.0,0.0,100.0,100.0,100.0,1999-01-01,1999-01-01,1999-01-01,1999-01-01,1999-01-01,1999-01-01,0.0,0.0,0.0,100.0,100.0,100.0,1999-01-01,1999-01-01,1999-01-01,1999-01-01,1999-01-01,1999-01-01,0.0,0.0,0.0,100.0,100.0,100.0,1999-01-01,1999-01-01,1999-01-01,1999-01-01,1999-01-01,1999-01-01,0.0,0.0,0.0,100.0,100.0,100.0,1999-01-01,1999-01-01,1999-01-01,1999-01-01,1999-01-01,1999-01-01,149400,118900,293000,-9.32,-22.05,53.23,0.0,0.0,0.0,-0.016,100.0,100.0,0.0,0.0,0.0,-0.003,100.0,100.0,0.0,0.0,0.0,-0.01453,100.0,100.0,0.0,0.0,0.0,100.0,100.0,100.0,19.92,0.0,0.0,100.0,100.0,100.0,0.0,0.0,0.0,100.0,100.0,100.0,1999-01-01,1999-01-01,1999-01-01,2004-06-18,1999-01-01,1999-01-01,1999-01-01,1999-01-01,1999-01-01,2004-07-30,1999-01-01,1999-01-01,0,0,0,2037,0,0,1999-01-01,1999-01-01,1999-01-01,1999-01-01,1999-01-01,1999-01-01,2004-08-06,1999-01-01,1999-01-01,1999-01-01,1999-01-01,1999-01-01,1999-01-01,1999-01-01,1999-01-01,1999-01-01,1999-01-01,1999-01-01,-293000.0,,,,Life.Empty,Life.BullEnd,Life.Bear,Life.BearRecovery,Life.BearEnd,p2p,,,,n2p,0.36588,,,-1.06,7.18,-4.64,1.08,-1.87,4.9,-4.16,4.61,5.0,15.0,20.0,10.0,10.0,20.0,20.0,10.0,,
2004-08-20,PPG,,,,,,,0,0,0,,0,0,0,0.359,,0.36631,0.37221,0.38624,0.40553,-0.02878,,,,,,-0.01739,,,,,,-0.03408,,,,,,-0.00529,0.0114,-0.01669,,,,0.37501,0.39339,-0.01838,-0.01578,-0.01527,-0.00051,-0.00099,,,,,-0.0,-0.0075,0.0009,-0.00323,0.27876,21.79931,,,,,,0.0,10.78604,0.0,,21.47834,34.51089,,,,,0.02352,0.031,,,,,,,,,,,,-0.15,0.0,0.0,0.0,0.0,0.0,0.0,1999-01-01,1999-01-01,1999-01-01,1999-01-01,1999-01-01,1999-01-01,0.372,0.377,0.379,0.359,0.366,0.372,2004-08-06,2004-07-09,2004-06-18,2004-08-20,2004-07-23,2004-06-25,0.0,0.0,0.0,100.0,100.0,100.0,1999-01-01,1999-01-01,1999-01-01,1999-01-01,1999-01-01,1999-01-01,0.0,0.0,0.0,-0.029,100.0,100.0,1999-01-01,1999-01-01,1999-01-01,2004-08-06,1999-01-01,1999-01-01,0.0,0.0,0.0,-0.022,100.0,100.0,1999-01-01,1999-01-01,1999-01-01,2004-07-09,1999-01-01,1999-01-01,0.0,0.0,0.0,-0.037,100.0,100.0,1999-01-01,1999-01-01,1999-01-01,2004-07-23,1999-01-01,1999-01-01,0.0,0.0,0.0,100.0,100.0,100.0,1999-01-01,1999-01-01,1999-01-01,1999-01-01,1999-01-01,1999-01-01,0.0,0.0,0.0,100.0,100.0,100.0,1999-01-01,1999-01-01,1999-01-01,1999-01-01,1999-01-01,1999-01-01,0.0,0.0,0.0,100.0,100.0,100.0,1999-01-01,1999-01-01,1999-01-01,1999-01-01,1999-01-01,1999-01-01,0.0,0.0,0.0,100.0,100.0,100.0,1999-01-01,1999-01-01,1999-01-01,1999-01-01,1999-01-01,1999-01-01,118900,293000,193500,-22.05,53.23,7.86,0.0,0.0,0.0,-0.016,100.0,100.0,0.0,0.0,0.0,-0.003,100.0,100.0,0.0,0.0,0.0,-0.01453,100.0,100.0,0.0,0.0,0.0,100.0,100.0,100.0,19.92,0.0,0.0,0.0,100.0,100.0,0.0,0.0,0.0,100.0,100.0,100.0,1999-01-01,1999-01-01,1999-01-01,2004-06-18,1999-01-01,1999-01-01,1999-01-01,1999-01-01,1999-01-01,2004-07-30,1999-01-01,1999-01-01,0,0,0,2037,0,0,1999-01-01,1999-01-01,1999-01-01,1999-01-01,1999-01-01,1999-01-01,2004-08-06,1999-01-01,1999-01-01,2004-08-20,1999-01-01,1999-01-01,1999-01-01,1999-01-01,1999-01-01,1999-01-01,1999-01-01,1999-01-01,,,,,Life.Empty,Life.BullEnd,Life.Bear,Life.BearRecovery,Life.BearEnd,,,,n2p,,0.36212,0.362,,7.15,-4.64,1.08,-1.87,4.9,-4.16,4.61,-1.3,15.0,20.0,10.0,10.0,20.0,20.0,10.0,10.0,,
2004-08-27,PPG,,,,,,,0,0,0,,0,0,0,,,0.36554,0.37072,0.38412,0.40351,-0.02825,,,,,,-0.01617,,,,,,-0.03292,,,,,,-0.00467,0.01209,-0.01675,,,,0.37331,0.39121,-0.0179,-0.01533,-0.01528,-5e-05,-0.00051,,,,,0.005,0.0,0.00126,-0.00234,0.53823,34.99006,,,,,,22.12389,11.52057,,,21.58416,27.82674,,,,,0.02238,0.02993,,,,,,,,,,,,-0.15,0.0,0.0,0.0,0.0,0.0,0.0,1999-01-01,1999-01-01,1999-01-01,1999-01-01,1999-01-01,1999-01-01,0.372,0.377,0.379,0.359,0.366,0.372,2004-08-06,2004-07-09,2004-06-18,2004-08-20,2004-07-23,2004-06-25,0.0,0.0,0.0,100.0,100.0,100.0,1999-01-01,1999-01-01,1999-01-01,1999-01-01,1999-01-01,1999-01-01,0.0,0.0,0.0,-0.029,100.0,100.0,1999-01-01,1999-01-01,1999-01-01,2004-08-06,1999-01-01,1999-01-01,0.0,0.0,0.0,-0.022,100.0,100.0,1999-01-01,1999-01-01,1999-01-01,2004-07-09,1999-01-01,1999-01-01,0.0,0.0,0.0,-0.037,100.0,100.0,1999-01-01,1999-01-01,1999-01-01,2004-07-23,1999-01-01,1999-01-01,0.0,0.0,0.0,100.0,100.0,100.0,1999-01-01,1999-01-01,1999-01-01,1999-01-01,1999-01-01,1999-01-01,0.0,0.0,0.0,100.0,100.0,100.0,1999-01-01,1999-01-01,1999-01-01,1999-01-01,1999-01-01,1999-01-01,0.0,0.0,0.0,100.0,100.0,100.0,1999-01-01,1999-01-01,1999-01-01,1999-01-01,1999-01-01,1999-01-01,0.0,0.0,0.0,100.0,100.0,100.0,1999-01-01,1999-01-01,1999-01-01,1999-01-01,1999-01-01,1999-01-01,293000,193500,543200,53.23,7.86,70.09,0.0,0.0,0.0,-0.016,100.0,100.0,0.0,0.0,0.0,-0.003,100.0,100.0,0.0,0.0,0.0,-0.01453,100.0,100.0,0.0,0.0,0.0,100.0,100.0,100.0,19.92,0.0,0.0,0.0,100.0,100.0,0.0,0.0,0.0,100.0,100.0,100.0,1999-01-01,1999-01-01,1999-01-01,2004-06-18,1999-01-01,1999-01-01,1999-01-01,1999-01-01,1999-01-01,2004-07-30,1999-01-01,1999-01-01,0,0,0,2037,0,0,1999-01-01,1999-01-01,1999-01-01,1999-01-01,1999-01-01,1999-01-01,2004-08-06,1999-01-01,1999-01-01,2004-08-20,1999-01-01,1999-01-01,1999-01-01,1999-01-01,1999-01-01,1999-01-01,1999-01-01,1999-01-01,,543200.0,,,Life.Empty,Life.BullEnd,Life.Bear,Life.BearRecovery,Life.BearEnd,,,n2p,,p2p,0.36965,,,4.96,-4.64,1.08,-1.87,4.9,-4.16,4.61,-1.3,10.0,20.0,10.0,10.0,20.0,20.0,10.0,10.0,,
2004-09-03,PPG,,,,,,,0,0,0,,0,0,0,,0.392,0.37423,0.37451,0.38483,0.40293,-0.02759,,,0.01508,,,-0.01492,,,0.01019,,,-0.03166,,,0.01761,,,-0.00408,0.01266,-0.01674,,,,0.37613,0.39124,-0.01512,-0.0148,-0.01519,0.00038,-5e-05,,,,,0.0276,0.0,0.00323,-0.00216,1.49669,59.94695,,,,,,64.94024,29.02138,,64.94,34.98008,26.01419,,,,,0.02401,0.0289,,,,,,,,,,,,-0.15,0.0,0.0,0.0,0.0,0.0,0.0,1999-01-01,1999-01-01,1999-01-01,1999-01-01,1999-01-01,1999-01-01,0.392,0.372,0.377,0.359,0.366,0.372,2004-09-03,2004-08-06,2004-07-09,2004-08-20,2004-07-23,2004-06-25,0.0,0.0,0.0,100.0,100.0,100.0,1999-01-01,1999-01-01,1999-01-01,1999-01-01,1999-01-01,1999-01-01,0.0,0.0,0.0,-0.029,100.0,100.0,1999-01-01,1999-01-01,1999-01-01,2004-08-06,1999-01-01,1999-01-01,0.0,0.0,0.0,-0.022,100.0,100.0,1999-01-01,1999-01-01,1999-01-01,2004-07-09,1999-01-01,1999-01-01,0.0,0.0,0.0,-0.037,100.0,100.0,1999-01-01,1999-01-01,1999-01-01,2004-07-23,1999-01-01,1999-01-01,0.0,0.0,0.0,100.0,100.0,100.0,1999-01-01,1999-01-01,1999-01-01,1999-01-01,1999-01-01,1999-01-01,0.0,0.0,0.0,100.0,100.0,100.0,1999-01-01,1999-01-01,1999-01-01,1999-01-01,1999-01-01,1999-01-01,0.0,0.0,0.0,100.0,100.0,100.0,1999-01-01,1999-01-01,1999-01-01,1999-01-01,1999-01-01,1999-01-01,0.0,0.0,0.0,100.0,100.0,100.0,1999-01-01,1999-01-01,1999-01-01,1999-01-01,1999-01-01,1999-01-01,193500,543200,1048300,7.86,70.09,73.35,0.0,0.0,0.0,-0.016,100.0,100.0,0.0,0.0,0.0,-0.003,100.0,100.0,0.0,0.0,0.0,-0.01453,100.0,100.0,0.0,0.0,0.0,100.0,100.0,100.0,64.94,19.92,0.0,0.0,100.0,100.0,0.0,0.0,0.0,100.0,100.0,100.0,1999-01-01,1999-01-01,1999-01-01,2004-06-18,1999-01-01,1999-01-01,1999-01-01,1999-01-01,1999-01-01,2004-07-30,1999-01-01,1999-01-01,0,0,0,2037,0,0,1999-01-01,1999-01-01,1999-01-01,1999-01-01,1999-01-01,1999-01-01,2004-09-03,2004-08-06,1999-01-01,2004-08-20,1999-01-01,1999-01-01,1999-01-01,1999-01-01,1999-01-01,1999-01-01,1999-01-01,1999-01-01,,,,,Life.Empty,Life.BullEnd,Life.Bear,Life.BearRecovery,Life.BearEnd,,n2p,,p2p,p2p,0.38345,,,1.19,-4.64,1.08,-1.87,4.9,-4.16,4.61,-1.3,5.0,20.0,10.0,10.0,20.0,20.0,10.0,10.0,,
2004-09-10,PPG,,,,,,,0,0,0,,0,0,0,0.387,,0.37835,0.37671,0.385,0.40213,-0.02681,,,0.01347,,,-0.01368,,,0.00797,,,-0.03034,,,0.01489,,,-0.00353,0.01313,-0.01666,,,,0.37774,0.3909,-0.01316,-0.01421,-0.01499,0.00078,0.00038,,,,,-0.0,-0.005,0.00323,-0.00251,1.28409,56.21891,,,,,,54.98008,47.34807,54.98,,53.30677,36.62367,,,,,0.02301,0.02793,,,,,,,,,,,,-0.15,0.0,0.0,0.0,0.0,0.0,0.0,1999-01-01,1999-01-01,1999-01-01,1999-01-01,1999-01-01,1999-01-01,0.392,0.372,0.377,0.387,0.359,0.366,2004-09-03,2004-08-06,2004-07-09,2004-09-10,2004-08-20,2004-07-23,0.0,0.0,0.0,100.0,100.0,100.0,1999-01-01,1999-01-01,1999-01-01,1999-01-01,1999-01-01,1999-01-01,0.0,0.0,0.0,-0.029,100.0,100.0,1999-01-01,1999-01-01,1999-01-01,2004-08-06,1999-01-01,1999-01-01,0.0,0.0,0.0,-0.022,100.0,100.0,1999-01-01,1999-01-01,1999-01-01,2004-07-09,1999-01-01,1999-01-01,0.0,0.0,0.0,-0.037,100.0,100.0,1999-01-01,1999-01-01,1999-01-01,2004-07-23,1999-01-01,1999-01-01,0.0,0.0,0.0,100.0,100.0,100.0,1999-01-01,1999-01-01,1999-01-01,1999-01-01,1999-01-01,1999-01-01,0.0,0.0,0.0,100.0,100.0,100.0,1999-01-01,1999-01-01,1999-01-01,1999-01-01,1999-01-01,1999-01-01,0.0,0.0,0.0,100.0,100.0,100.0,1999-01-01,1999-01-01,1999-01-01,1999-01-01,1999-01-01,1999-01-01,0.0,0.0,0.0,100.0,100.0,100.0,1999-01-01,1999-01-01,1999-01-01,1999-01-01,1999-01-01,1999-01-01,543200,1048300,761900,70.09,73.35,31.84,0.0,0.0,0.0,-0.016,100.0,100.0,0.0,0.0,0.0,-0.003,100.0,100.0,0.0,0.0,0.0,-0.01453,100.0,100.0,0.0,0.0,0.0,100.0,100.0,100.0,64.94,19.92,0.0,54.98,0.0,100.0,0.0,0.0,0.0,100.0,100.0,100.0,1999-01-01,1999-01-01,1999-01-01,2004-06-18,1999-01-01,1999-01-01,1999-01-01,1999-01-01,1999-01-01,2004-07-30,1999-01-01,1999-01-01,0,0,0,2037,0,0,1999-01-01,1999-01-01,1999-01-01,1999-01-01,1999-01-01,1999-01-01,2004-09-03,2004-08-06,1999-01-01,2004-09-10,2004-08-20,1999-01-01,1999-01-01,1999-01-01,1999-01-01,1999-01-01,1999-01-01,1999-01-01,,,,,Life.Empty,Life.BullEnd,Life.Bear,Life.BearRecovery,Life.BearEnd,n2p,,p2p,p2p,,0.3885,,0.388,-4.76,1.08,-1.87,4.9,-4.16,4.61,-1.3,1.57,20.0,10.0,10.0,20.0,20.0,10.0,10.0,10.0,,
2004-09-17,PPG,,,,,,,0,0,0,,0,0,0,,0.389,0.38197,0.37898,0.3854,0.4015,-0.02595,,,0.01183,,,-0.01248,,,0.00585,,,-0.029,,,0.01223,,,-0.00305,0.01347,-0.01652,,,,0.3795,0.39077,-0.01127,-0.01358,-0.01471,0.00113,0.00078,,,,,0.0026,0.0,0.00341,-0.00251,1.35795,57.59036,,,,,,60.15936,60.02656,,60.159,60.02656,49.4378,,,,,0.02282,0.027,,,,,,,,,,,,-0.15,0.0,0.0,0.0,0.0,0.0,0.0,1999-01-01,1999-01-01,1999-01-01,1999-01-01,1999-01-01,1999-01-01,0.389,0.392,0.372,0.387,0.359,0.366,2004-09-17,2004-09-03,2004-08-06,2004-09-10,2004-08-20,2004-07-23,0.0,0.0,0.0,100.0,100.0,100.0,1999-01-01,1999-01-01,1999-01-01,1999-01-01,1999-01-01,1999-01-01,0.0,0.0,0.0,-0.029,100.0,100.0,1999-01-01,1999-01-01,1999-01-01,2004-08-06,1999-01-01,1999-01-01,0.0,0.0,0.0,-0.022,100.0,100.0,1999-01-01,1999-01-01,1999-01-01,2004-07-09,1999-01-01,1999-01-01,0.0,0.0,0.0,-0.037,100.0,100.0,1999-01-01,1999-01-01,1999-01-01,2004-07-23,1999-01-01,1999-01-01,0.0,0.0,0.0,100.0,100.0,100.0,1999-01-01,1999-01-01,1999-01-01,1999-01-01,1999-01-01,1999-01-01,0.0,0.0,0.0,100.0,100.0,100.0,1999-01-01,1999-01-01,1999-01-01,1999-01-01,1999-01-01,1999-01-01,0.0,0.0,0.0,100.0,100.0,100.0,1999-01-01,1999-01-01,1999-01-01,1999-01-01,1999-01-01,1999-01-01,0.0,0.0,0.0,100.0,100.0,100.0,1999-01-01,1999-01-01,1999-01-01,1999-01-01,1999-01-01,1999-01-01,1048300,761900,429700,73.35,31.84,-4.82,0.0,0.0,0.0,-0.016,100.0,100.0,0.0,0.0,0.0,-0.003,100.0,100.0,0.0,0.0,0.0,-0.01453,100.0,100.0,0.0,0.0,0.0,100.0,100.0,100.0,60.159,64.94,19.92,54.98,0.0,100.0,0.0,0.0,0.0,100.0,100.0,100.0,1999-01-01,1999-01-01,1999-01-01,2004-06-18,1999-01-01,1999-01-01,1999-01-01,1999-01-01,1999-01-01,2004-07-30,1999-01-01,1999-01-01,0,0,0,2037,0,0,1999-01-01,1999-01-01,1999-01-01,1999-01-01,1999-01-01,1999-01-01,2004-09-17,2004-09-03,2004-08-06,2004-09-10,2004-08-20,1999-01-01,1999-01-01,1999-01-01,1999-01-01,1999-01-01,1999-01-01,1999-01-01,,,,,Life.Empty,Life.BullEnd,Life.Bear,Life.BearRecovery,Life.BearEnd,,p2p,p2p,,,0.3853,,,-3.97,1.08,-1.87,4.9,-4.16,4.61,-1.3,1.57,15.0,10.0,10.0,20.0,20.0,10.0,10.0,10.0,,
2004-09-24,PPG,,,,,,,0,0,0,,0,0,0,,,0.38004,0.37848,0.38453,0.40026,-0.02503,,,0.01019,,,-0.01132,,,0.00389,,,-0.02765,,,0.00973,,,-0.00262,0.01372,-0.01634,,,,0.37899,0.38969,-0.0107,-0.01291,-0.01435,0.00144,0.00113,,,,,-0.0,-0.013,0.00324,-0.00344,0.93983,48.4492,,,,,,34.26295,49.8008,,,49.8008,54.37804,,,,,0.02249,0.02613,,,,,,,,,,,,-0.15,0.0,0.0,0.0,0.0,0.0,0.0,1999-01-01,1999-01-01,1999-01-01,1999-01-01,1999-01-01,1999-01-01,0.389,0.392,0.372,0.387,0.359,0.366,2004-09-17,2004-09-03,2004-08-06,2004-09-10,2004-08-20,2004-07-23,0.0,0.0,0.0,100.0,100.0,100.0,1999-01-01,1999-01-01,1999-01-01,1999-01-01,1999-01-01,1999-01-01,0.0,0.0,0.0,-0.029,100.0,100.0,1999-01-01,1999-01-01,1999-01-01,2004-08-06,1999-01-01,1999-01-01,0.0,0.0,0.0,-0.022,100.0,100.0,1999-01-01,1999-01-01,1999-01-01,2004-07-09,1999-01-01,1999-01-01,0.0,0.0,0.0,-0.037,100.0,100.0,1999-01-01,1999-01-01,1999-01-01,2004-07-23,1999-01-01,1999-01-01,0.0,0.0,0.0,100.0,100.0,100.0,1999-01-01,1999-01-01,1999-01-01,1999-01-01,1999-01-01,1999-01-01,0.0,0.0,0.0,100.0,100.0,100.0,1999-01-01,1999-01-01,1999-01-01,1999-01-01,1999-01-01,1999-01-01,0.0,0.0,0.0,100.0,100.0,100.0,1999-01-01,1999-01-01,1999-01-01,1999-01-01,1999-01-01,1999-01-01,0.0,0.0,0.0,100.0,100.0,100.0,1999-01-01,1999-01-01,1999-01-01,1999-01-01,1999-01-01,1999-01-01,761900,429700,99700,31.84,-4.82,-42.35,0.0,0.0,0.0,-0.016,100.0,100.0,0.0,0.0,0.0,-0.003,100.0,100.0,0.0,0.0,0.0,-0.01453,100.0,100.0,0.0,0.0,0.0,100.0,100.0,100.0,60.159,64.94,19.92,54.98,0.0,100.0,0.0,0.0,0.0,100.0,100.0,100.0,1999-01-01,1999-01-01,1999-01-01,2004-06-18,1999-01-01,1999-01-01,1999-01-01,1999-01-01,1999-01-01,2004-07-30,1999-01-01,1999-01-01,0,0,0,2037,0,0,1999-01-01,1999-01-01,1999-01-01,1999-01-01,1999-01-01,1999-01-01,2004-09-17,2004-09-03,2004-08-06,2004-09-10,2004-08-20,1999-01-01,1999-01-01,1999-01-01,1999-01-01,1999-01-01,1999-01-01,1999-01-01,,,,,Life.Empty,Life.BullEnd,Life.Bear,Life.BearRecovery,Life.BearEnd,p2p,p2p,,,,0.37878,,,-2.32,1.08,-1.87,4.9,-4.16,4.61,-1.3,1.57,10.0,10.0,10.0,20.0,20.0,10.0,10.0,10.0,,
2004-10-01,PPG,,,,,,,0,0,0,,0,0,0,,,0.37786,0.37757,0.38348,0.39896,-0.02408,,,0.00859,,,-0.01022,,,0.00214,,,-0.02632,,,0.00742,,,-0.00225,0.01386,-0.01611,,,,0.37815,0.38849,-0.01035,-0.01223,-0.01393,0.00169,0.00144,,,,,-0.0,-0.0027,0.00324,-0.00309,1.04619,51.12867,,,,,,28.88446,41.10226,,,38.48,49.43579,,,,,0.02164,0.0253,,,,,,,,,,,,-0.15,0.0,0.0,0.0,0.0,0.0,0.0,1999-01-01,1999-01-01,1999-01-01,1999-01-01,1999-01-01,1999-01-01,0.389,0.392,0.372,0.387,0.359,0.366,2004-09-17,2004-09-03,2004-08-06,2004-09-10,2004-08-20,2004-07-23,0.0,0.0,0.0,100.0,100.0,100.0,1999-01-01,1999-01-01,1999-01-01,1999-01-01,1999-01-01,1999-01-01,0.0,0.0,0.0,-0.029,100.0,100.0,1999-01-01,1999-01-01,1999-01-01,2004-08-06,1999-01-01,1999-01-01,0.0,0.0,0.0,-0.022,100.0,100.0,1999-01-01,1999-01-01,1999-01-01,2004-07-09,1999-01-01,1999-01-01,0.0,0.0,0.0,-0.037,100.0,100.0,1999-01-01,1999-01-01,1999-01-01,2004-07-23,1999-01-01,1999-01-01,0.0,0.0,0.0,100.0,100.0,100.0,1999-01-01,1999-01-01,1999-01-01,1999-01-01,1999-01-01,1999-01-01,0.0,0.0,0.0,100.0,100.0,100.0,1999-01-01,1999-01-01,1999-01-01,1999-01-01,1999-01-01,1999-01-01,0.0,0.0,0.0,100.0,100.0,100.0,1999-01-01,1999-01-01,1999-01-01,1999-01-01,1999-01-01,1999-01-01,0.0,0.0,0.0,100.0,100.0,100.0,1999-01-01,1999-01-01,1999-01-01,1999-01-01,1999-01-01,1999-01-01,429700,99700,284900,-4.82,-42.35,-36.94,0.0,0.0,0.0,-0.016,100.0,100.0,0.0,0.0,0.0,-0.003,100.0,100.0,0.0,0.0,0.0,-0.01453,100.0,100.0,0.0,0.0,0.0,100.0,100.0,100.0,60.159,64.94,19.92,54.98,0.0,100.0,0.0,0.0,0.0,100.0,100.0,100.0,1999-01-01,1999-01-01,1999-01-01,2004-06-18,1999-01-01,1999-01-01,1999-01-01,1999-01-01,1999-01-01,2004-07-30,1999-01-01,1999-01-01,0,0,0,2037,0,0,1999-01-01,1999-01-01,1999-01-01,1999-01-01,1999-01-01,1999-01-01,2004-09-17,2004-09-03,2004-08-06,2004-09-10,2004-08-20,1999-01-01,1999-01-01,1999-01-01,1999-01-01,1999-01-01,1999-01-01,1999-01-01,,,,,Life.Empty,Life.BullEnd,Life.Bear,Life.BearRecovery,Life.BearEnd,p2p,,,,,0.37353,,,-0.95,1.08,-1.87,4.9,-4.16,4.61,-1.3,1.57,5.0,10.0,10.0,20.0,20.0,10.0,10.0,10.0,,
2004-10-08,PPG,,,,,,,0,0,0,,0,0,0,,,0.37554,0.37636,0.38228,0.39759,-0.02309,,,0.00708,,,-0.00918,,,0.00061,,,-0.02503,,,0.00536,,,-0.00193,0.01391,-0.01584,,,,0.37703,0.38719,-0.01016,-0.01155,-0.01345,0.0019,0.00169,,,,,-0.0,-0.0026,0.00287,-0.00328,0.87582,46.6899,,,,,,23.70518,28.95086,,,18.42688,35.56923,,,,,0.02066,0.02452,,,,,,,,,,,,-0.15,0.0,0.0,0.0,0.0,0.0,0.0,1999-01-01,1999-01-01,1999-01-01,1999-01-01,1999-01-01,1999-01-01,0.389,0.392,0.372,0.387,0.359,0.366,2004-09-17,2004-09-03,2004-08-06,2004-09-10,2004-08-20,2004-07-23,0.0,0.0,0.0,100.0,100.0,100.0,1999-01-01,1999-01-01,1999-01-01,1999-01-01,1999-01-01,1999-01-01,0.0,0.0,0.0,-0.029,100.0,100.0,1999-01-01,1999-01-01,1999-01-01,2004-08-06,1999-01-01,1999-01-01,0.0,0.0,0.0,-0.022,100.0,100.0,1999-01-01,1999-01-01,1999-01-01,2004-07-09,1999-01-01,1999-01-01,0.0,0.0,0.0,-0.037,100.0,100.0,1999-01-01,1999-01-01,1999-01-01,2004-07-23,1999-01-01,1999-01-01,0.0,0.0,0.0,100.0,100.0,100.0,1999-01-01,1999-01-01,1999-01-01,1999-01-01,1999-01-01,1999-01-01,0.0,0.0,0.0,100.0,100.0,100.0,1999-01-01,1999-01-01,1999-01-01,1999-01-01,1999-01-01,1999-01-01,0.0,0.0,0.0,100.0,100.0,100.0,1999-01-01,1999-01-01,1999-01-01,1999-01-01,1999-01-01,1999-01-01,0.0,0.0,0.0,100.0,100.0,100.0,1999-01-01,1999-01-01,1999-01-01,1999-01-01,1999-01-01,1999-01-01,99700,284900,170000,-42.35,-36.94,-31.89,0.0,0.0,0.0,-0.016,100.0,100.0,0.0,0.0,0.0,-0.003,100.0,100.0,0.0,0.0,0.0,-0.01453,100.0,100.0,0.0,0.0,0.0,100.0,100.0,100.0,60.159,64.94,19.92,54.98,0.0,100.0,0.0,0.0,0.0,100.0,100.0,100.0,1999-01-01,1999-01-01,1999-01-01,2004-06-18,1999-01-01,1999-01-01,1999-01-01,1999-01-01,1999-01-01,2004-07-30,1999-01-01,1999-01-01,0,0,0,2037,0,0,1999-01-01,1999-01-01,1999-01-01,1999-01-01,1999-01-01,1999-01-01,2004-09-17,2004-09-03,2004-08-06,2004-09-10,2004-08-20,1999-01-01,1999-01-01,1999-01-01,1999-01-01,1999-01-01,1999-01-01,1999-01-01,,,,,Life.Empty,Life.BullEnd,Life.Bear,Life.BearRecovery,Life.BearEnd,,,,,,0.37025,0.37,,1.01,-1.87,4.9,-4.16,4.61,-1.3,1.57,-2.33,10.0,10.0,20.0,20.0,10.0,10.0,10.0,10.0,,
2004-10-15,PPG,,,,,,,0,0,0,,0,0,0,0.366,,0.37226,0.37442,0.3807,0.39603,-0.0221,,,0.00567,,,-0.0082,,,-0.00068,,,-0.02376,,,0.00358,,,-0.00166,0.01389,-0.01556,,,,0.37529,0.3856,-0.01031,-0.01086,-0.01293,0.00207,0.0019,,,,,-0.0,-0.0052,0.00287,-0.00365,0.78669,44.03067,,,,,,13.34661,21.97875,13.347,,7.0059,21.30426,,,,,0.01993,0.02378,,,,,,,,,,,,-0.15,0.0,0.0,0.0,0.0,0.0,0.0,1999-01-01,1999-01-01,1999-01-01,1999-01-01,1999-01-01,1999-01-01,0.389,0.392,0.372,0.366,0.387,0.359,2004-09-17,2004-09-03,2004-08-06,2004-10-15,2004-09-10,2004-08-20,0.0,0.0,0.0,100.0,100.0,100.0,1999-01-01,1999-01-01,1999-01-01,1999-01-01,1999-01-01,1999-01-01,0.0,0.0,0.0,-0.029,100.0,100.0,1999-01-01,1999-01-01,1999-01-01,2004-08-06,1999-01-01,1999-01-01,0.0,0.0,0.0,-0.022,100.0,100.0,1999-01-01,1999-01-01,1999-01-01,2004-07-09,1999-01-01,1999-01-01,0.0,0.0,0.0,-0.037,100.0,100.0,1999-01-01,1999-01-01,1999-01-01,2004-07-23,1999-01-01,1999-01-01,0.0,0.0,0.0,100.0,100.0,100.0,1999-01-01,1999-01-01,1999-01-01,1999-01-01,1999-01-01,1999-01-01,0.0,0.0,0.0,100.0,100.0,100.0,1999-01-01,1999-01-01,1999-01-01,1999-01-01,1999-01-01,1999-01-01,0.0,0.0,0.0,100.0,100.0,100.0,1999-01-01,1999-01-01,1999-01-01,1999-01-01,1999-01-01,1999-01-01,0.0,0.0,0.0,100.0,100.0,100.0,1999-01-01,1999-01-01,1999-01-01,1999-01-01,1999-01-01,1999-01-01,284900,170000,233700,-36.94,-31.89,24.16,0.0,0.0,0.0,-0.016,100.0,100.0,0.0,0.0,0.0,-0.003,100.0,100.0,0.0,0.0,0.0,-0.01453,100.0,100.0,0.0,0.0,0.0,100.0,100.0,100.0,60.159,64.94,19.92,13.347,54.98,0.0,0.0,0.0,0.0,100.0,100.0,100.0,1999-01-01,1999-01-01,1999-01-01,2004-06-18,1999-01-01,1999-01-01,1999-01-01,1999-01-01,1999-01-01,2004-07-30,1999-01-01,1999-01-01,0,0,0,2037,0,0,1999-01-01,1999-01-01,1999-01-01,1999-01-01,1999-01-01,1999-01-01,2004-09-17,2004-09-03,2004-08-06,2004-10-15,2004-09-10,2004-08-20,1999-01-01,1999-01-01,1999-01-01,1999-01-01,1999-01-01,1999-01-01,-233700.0,,,,Life.Empty,Life.BullEnd,Life.Bear,Life.BearRecovery,Life.BearEnd,,,,,n2p,0.37092,,,0.83,-1.87,4.9,-4.16,4.61,-1.3,1.57,-2.33,5.0,10.0,20.0,20.0,10.0,10.0,10.0,10.0,,
2004-10-22,PPG,,,,,,,0,0,0,,0,0,0,,0.381,0.37531,0.37569,0.38077,0.39532,-0.0211,,,0.00439,,,-0.00729,,,-0.00172,,,-0.02254,,,0.00208,,,-0.00144,0.01381,-0.01525,,,,0.37623,0.38529,-0.00906,-0.01018,-0.01238,0.0022,0.00207,,,,,0.0157,0.0,0.00399,-0.00311,1.28506,56.23742,,,,,,44.62151,27.22444,,44.622,21.25436,15.56238,,,,,0.02056,0.0231,,,,,,,,,,,,-0.15,0.0,0.0,0.0,0.0,0.0,0.0,1999-01-01,1999-01-01,1999-01-01,1999-01-01,1999-01-01,1999-01-01,0.381,0.389,0.392,0.366,0.387,0.359,2004-10-22,2004-09-17,2004-09-03,2004-10-15,2004-09-10,2004-08-20,0.0,0.0,0.0,100.0,100.0,100.0,1999-01-01,1999-01-01,1999-01-01,1999-01-01,1999-01-01,1999-01-01,0.0,0.0,0.0,-0.029,100.0,100.0,1999-01-01,1999-01-01,1999-01-01,2004-08-06,1999-01-01,1999-01-01,0.0,0.0,0.0,-0.022,100.0,100.0,1999-01-01,1999-01-01,1999-01-01,2004-07-09,1999-01-01,1999-01-01,0.0,0.0,0.0,-0.037,100.0,100.0,1999-01-01,1999-01-01,1999-01-01,2004-07-23,1999-01-01,1999-01-01,0.0,0.0,0.0,100.0,100.0,100.0,1999-01-01,1999-01-01,1999-01-01,1999-01-01,1999-01-01,1999-01-01,0.0,0.0,0.0,100.0,100.0,100.0,1999-01-01,1999-01-01,1999-01-01,1999-01-01,1999-01-01,1999-01-01,0.0,0.0,0.0,100.0,100.0,100.0,1999-01-01,1999-01-01,1999-01-01,1999-01-01,1999-01-01,1999-01-01,0.0,0.0,0.0,100.0,100.0,100.0,1999-01-01,1999-01-01,1999-01-01,1999-01-01,1999-01-01,1999-01-01,170000,233700,218100,-31.89,24.16,-9.7,0.0,0.0,0.0,-0.016,100.0,100.0,0.0,0.0,0.0,-0.003,100.0,100.0,0.0,0.0,0.0,-0.01453,100.0,100.0,0.0,0.0,0.0,100.0,100.0,100.0,44.622,60.159,64.94,13.347,54.98,0.0,0.0,0.0,0.0,100.0,100.0,100.0,1999-01-01,1999-01-01,1999-01-01,2004-06-18,1999-01-01,1999-01-01,1999-01-01,1999-01-01,1999-01-01,2004-07-30,1999-01-01,1999-01-01,0,0,0,2037,0,0,1999-01-01,1999-01-01,1999-01-01,1999-01-01,1999-01-01,1999-01-01,2004-10-22,2004-09-17,2004-09-03,2004-10-15,2004-09-10,2004-08-20,1999-01-01,1999-01-01,1999-01-01,1999-01-01,1999-01-01,1999-01-01,,,,,Life.Empty,Life.BullEnd,Life.Bear,Life.BearRecovery,Life.BearEnd,,,,n2p,,0.3742,,0.374,-1.92,4.9,-4.16,4.61,-1.3,1.57,-2.33,3.17,10.0,20.0,20.0,10.0,10.0,10.0,10.0,15.0,,
2004-10-29,PPG,,,,,,,0,0,0,,0,0,0,,,0.37297,0.37435,0.37958,0.394,-0.02011,,,0.00324,,,-0.00643,,,-0.00253,,,-0.02135,,,0.00086,,,-0.00125,0.01367,-0.01492,,,,0.37501,0.38403,-0.00902,-0.00952,-0.01181,0.00229,0.0022,,,,,-0.0,-0.0131,0.00399,-0.00386,1.03327,50.81818,,,,,,18.5259,25.49801,,,27.29384,18.51803,,,,,0.02021,0.02245,,,,,,,,,,,,-0.15,0.0,0.0,0.0,0.0,0.0,0.0,1999-01-01,1999-01-01,1999-01-01,1999-01-01,1999-01-01,1999-01-01,0.381,0.389,0.392,0.366,0.387,0.359,2004-10-22,2004-09-17,2004-09-03,2004-10-15,2004-09-10,2004-08-20,0.0,0.0,0.0,100.0,100.0,100.0,1999-01-01,1999-01-01,1999-01-01,1999-01-01,1999-01-01,1999-01-01,0.0,0.0,0.0,-0.029,100.0,100.0,1999-01-01,1999-01-01,1999-01-01,2004-08-06,1999-01-01,1999-01-01,0.0,0.0,0.0,-0.022,100.0,100.0,1999-01-01,1999-01-01,1999-01-01,2004-07-09,1999-01-01,1999-01-01,0.0,0.0,0.0,-0.037,100.0,100.0,1999-01-01,1999-01-01,1999-01-01,2004-07-23,1999-01-01,1999-01-01,0.0,0.0,0.0,100.0,100.0,100.0,1999-01-01,1999-01-01,1999-01-01,1999-01-01,1999-01-01,1999-01-01,0.0,0.0,0.0,100.0,100.0,100.0,1999-01-01,1999-01-01,1999-01-01,1999-01-01,1999-01-01,1999-01-01,0.0,0.0,0.0,100.0,100.0,100.0,1999-01-01,1999-01-01,1999-01-01,1999-01-01,1999-01-01,1999-01-01,0.0,0.0,0.0,100.0,100.0,100.0,1999-01-01,1999-01-01,1999-01-01,1999-01-01,1999-01-01,1999-01-01,233700,218100,97700,24.16,-9.7,-11.63,0.0,0.0,0.0,-0.016,100.0,100.0,0.0,0.0,0.0,-0.003,100.0,100.0,0.0,0.0,0.0,-0.01453,100.0,100.0,0.0,0.0,0.0,100.0,100.0,100.0,44.622,60.159,64.94,13.347,54.98,0.0,0.0,0.0,0.0,100.0,100.0,100.0,1999-01-01,1999-01-01,1999-01-01,2004-06-18,1999-01-01,1999-01-01,1999-01-01,1999-01-01,1999-01-01,2004-07-30,1999-01-01,1999-01-01,0,0,0,2037,0,0,1999-01-01,1999-01-01,1999-01-01,1999-01-01,1999-01-01,1999-01-01,2004-10-22,2004-09-17,2004-09-03,2004-10-15,2004-09-10,2004-08-20,1999-01-01,1999-01-01,1999-01-01,1999-01-01,1999-01-01,1999-01-01,,,,,Life.Empty,Life.BullEnd,Life.Bear,Life.BearRecovery,Life.BearEnd,,,n2p,,,0.37092,,,-1.06,4.9,-4.16,4.61,-1.3,1.57,-2.33,3.17,5.0,20.0,20.0,10.0,10.0,10.0,10.0,15.0,,
2004-11-05,PPG,,,,,,,0,0,0,,0,0,0,0.366,,0.37055,0.37277,0.37826,0.39262,-0.01912,,,0.00223,,,-0.00563,,,-0.00312,,,-0.02022,,,-9e-05,,,-0.00109,0.01349,-0.01459,,,,0.37358,0.38267,-0.00909,-0.00887,-0.01122,0.00236,0.00229,,,,,-0.0,-0.0026,0.00364,-0.00405,0.89771,47.30483,,,,,,13.34661,25.49801,13.347,,30.31359,26.28726,,,,,0.01895,0.02185,,,,,,,,,,,,-0.15,0.0,0.0,0.0,0.0,0.0,0.0,1999-01-01,1999-01-01,1999-01-01,1999-01-01,1999-01-01,1999-01-01,0.381,0.389,0.392,0.366,0.366,0.387,2004-10-22,2004-09-17,2004-09-03,2004-11-05,2004-10-15,2004-09-10,0.0,0.0,0.0,100.0,100.0,100.0,1999-01-01,1999-01-01,1999-01-01,1999-01-01,1999-01-01,1999-01-01,0.0,0.0,0.0,-0.029,100.0,100.0,1999-01-01,1999-01-01,1999-01-01,2004-08-06,1999-01-01,1999-01-01,0.0,0.0,0.0,-0.022,100.0,100.0,1999-01-01,1999-01-01,1999-01-01,2004-07-09,1999-01-01,1999-01-01,0.0,0.0,0.0,-0.037,100.0,100.0,1999-01-01,1999-01-01,1999-01-01,2004-07-23,1999-01-01,1999-01-01,0.0,0.0,0.0,100.0,100.0,100.0,1999-01-01,1999-01-01,1999-01-01,1999-01-01,1999-01-01,1999-01-01,0.0,0.0,0.0,100.0,100.0,100.0,1999-01-01,1999-01-01,1999-01-01,1999-01-01,1999-01-01,1999-01-01,0.0,0.0,0.0,100.0,100.0,100.0,1999-01-01,1999-01-01,1999-01-01,1999-01-01,1999-01-01,1999-01-01,0.0,0.0,0.0,100.0,100.0,100.0,1999-01-01,1999-01-01,1999-01-01,1999-01-01,1999-01-01,1999-01-01,218100,97700,18000,-9.7,-11.63,-39.25,0.0,0.0,0.0,-0.016,100.0,100.0,0.0,0.0,0.0,-0.003,100.0,100.0,0.0,0.0,0.0,-0.01453,100.0,100.0,0.0,0.0,0.0,100.0,100.0,100.0,44.622,60.159,64.94,13.347,13.347,54.98,0.0,0.0,0.0,100.0,100.0,100.0,1999-01-01,1999-01-01,1999-01-01,2004-06-18,1999-01-01,1999-01-01,1999-01-01,1999-01-01,1999-01-01,2004-07-30,1999-01-01,1999-01-01,0,0,0,2037,0,0,1999-01-01,1999-01-01,1999-01-01,1999-01-01,1999-01-01,1999-01-01,2004-10-22,2004-09-17,2004-09-03,2004-11-05,2004-10-15,2004-09-10,1999-01-01,1999-01-01,1999-01-01,1999-01-01,1999-01-01,1999-01-01,,,,,Life.Empty,Life.BullEnd,Life.Bear,Life.BearRecovery,Life.BearEnd,,n2p,,,,0.367,0.367,,4.9,-4.16,4.61,-1.3,1.57,-2.33,3.17,-1.03,20.0,20.0,10.0,10.0,10.0,10.0,15.0,20.0,,
2004-11-12,PPG,,,,,,,0,0,0,,0,0,0,,,0.3698,0.37196,0.37731,0.39144,-0.01816,,,0.00137,,,-0.00488,,,-0.00353,,,-0.01912,,,-0.0008,,,-0.00096,0.01328,-0.01424,,,,0.37277,0.38161,-0.00884,-0.00823,-0.01062,0.00239,0.00236,,,,,0.0026,0.0,0.00382,-0.00405,0.94356,48.54809,,,,,,18.5259,16.79947,,,15.09872,24.23539,,,,,0.01797,0.02129,,,,,,,,,,,,-0.15,0.0,0.0,0.0,0.0,0.0,0.0,1999-01-01,1999-01-01,1999-01-01,1999-01-01,1999-01-01,1999-01-01,0.381,0.389,0.392,0.366,0.366,0.387,2004-10-22,2004-09-17,2004-09-03,2004-11-05,2004-10-15,2004-09-10,0.0,0.0,0.0,100.0,100.0,100.0,1999-01-01,1999-01-01,1999-01-01,1999-01-01,1999-01-01,1999-01-01,0.0,0.0,0.0,-0.029,100.0,100.0,1999-01-01,1999-01-01,1999-01-01,2004-08-06,1999-01-01,1999-01-01,0.0,0.0,0.0,-0.022,100.0,100.0,1999-01-01,1999-01-01,1999-01-01,2004-07-09,1999-01-01,1999-01-01,0.0,0.0,0.0,-0.037,100.0,100.0,1999-01-01,1999-01-01,1999-01-01,2004-07-23,1999-01-01,1999-01-01,0.0,0.0,0.0,100.0,100.0,100.0,1999-01-01,1999-01-01,1999-01-01,1999-01-01,1999-01-01,1999-01-01,0.0,0.0,0.0,100.0,100.0,100.0,1999-01-01,1999-01-01,1999-01-01,1999-01-01,1999-01-01,1999-01-01,0.0,0.0,0.0,100.0,100.0,100.0,1999-01-01,1999-01-01,1999-01-01,1999-01-01,1999-01-01,1999-01-01,0.0,0.0,0.0,100.0,100.0,100.0,1999-01-01,1999-01-01,1999-01-01,1999-01-01,1999-01-01,1999-01-01,97700,18000,32700,-11.63,-39.25,-55.54,0.0,0.0,0.0,-0.016,100.0,100.0,0.0,0.0,0.0,-0.003,100.0,100.0,0.0,0.0,0.0,-0.01453,100.0,100.0,0.0,0.0,0.0,100.0,100.0,100.0,44.622,60.159,64.94,13.347,13.347,54.98,0.0,0.0,0.0,100.0,100.0,100.0,1999-01-01,1999-01-01,1999-01-01,2004-06-18,1999-01-01,1999-01-01,1999-01-01,1999-01-01,1999-01-01,2004-07-30,1999-01-01,1999-01-01,0,0,0,2037,0,0,1999-01-01,1999-01-01,1999-01-01,1999-01-01,1999-01-01,1999-01-01,2004-10-22,2004-09-17,2004-09-03,2004-11-05,2004-10-15,2004-09-10,1999-01-01,1999-01-01,1999-01-01,1999-01-01,1999-01-01,1999-01-01,,,,,Life.Empty,Life.BullEnd,Life.Bear,Life.BearRecovery,Life.BearEnd,n2p,,,,,0.3683,,,4.53,-4.16,4.61,-1.3,1.57,-2.33,3.17,-1.03,15.0,20.0,10.0,10.0,10.0,10.0,15.0,20.0,,
2004-11-19,PPG,,,,,,,0,0,0,,0,0,0,,,0.37017,0.37177,0.3767,0.39043,-0.01721,,,0.00063,,,-0.00418,,,-0.00378,,,-0.01807,,,-0.0013,,,-0.00086,0.01303,-0.01389,,,,0.37248,0.38081,-0.00834,-0.00761,-0.01002,0.00241,0.00239,,,,0.002,0.0026,0.0,0.00401,-0.00369,1.08511,52.04082,50.8752,,,,,23.70518,18.5259,,,18.11847,21.17693,,,,,0.01687,0.02078,,,,,,,,,,,,-0.15,0.0,0.0,0.0,0.0,0.0,0.0,1999-01-01,1999-01-01,1999-01-01,1999-01-01,1999-01-01,1999-01-01,0.381,0.389,0.392,0.366,0.366,0.387,2004-10-22,2004-09-17,2004-09-03,2004-11-05,2004-10-15,2004-09-10,0.0,0.0,0.0,100.0,100.0,100.0,1999-01-01,1999-01-01,1999-01-01,1999-01-01,1999-01-01,1999-01-01,0.0,0.0,0.0,-0.029,100.0,100.0,1999-01-01,1999-01-01,1999-01-01,2004-08-06,1999-01-01,1999-01-01,0.0,0.0,0.0,-0.022,100.0,100.0,1999-01-01,1999-01-01,1999-01-01,2004-07-09,1999-01-01,1999-01-01,0.0,0.0,0.0,-0.037,100.0,100.0,1999-01-01,1999-01-01,1999-01-01,2004-07-23,1999-01-01,1999-01-01,0.0,0.0,0.0,100.0,100.0,100.0,1999-01-01,1999-01-01,1999-01-01,1999-01-01,1999-01-01,1999-01-01,0.0,0.0,0.0,100.0,100.0,100.0,1999-01-01,1999-01-01,1999-01-01,1999-01-01,1999-01-01,1999-01-01,0.0,0.0,0.0,100.0,100.0,100.0,1999-01-01,1999-01-01,1999-01-01,1999-01-01,1999-01-01,1999-01-01,0.0,0.0,0.0,100.0,100.0,100.0,1999-01-01,1999-01-01,1999-01-01,1999-01-01,1999-01-01,1999-01-01,18000,32700,48000,-39.25,-55.54,-33.49,0.0,0.0,0.0,-0.016,100.0,100.0,0.002,0.0,0.0,-0.003,100.0,100.0,0.0,0.0,0.0,-0.01453,100.0,100.0,0.0,0.0,0.0,100.0,100.0,100.0,44.622,60.159,64.94,13.347,13.347,54.98,0.0,0.0,0.0,100.0,100.0,100.0,2004-11-19,1999-01-01,1999-01-01,2004-06-18,1999-01-01,1999-01-01,1999-01-01,1999-01-01,1999-01-01,2004-07-30,1999-01-01,1999-01-01,0,0,0,2037,0,0,1999-01-01,1999-01-01,1999-01-01,1999-01-01,1999-01-01,1999-01-01,2004-10-22,2004-09-17,2004-09-03,2004-11-05,2004-10-15,2004-09-10,1999-01-01,1999-01-01,1999-01-01,1999-01-01,1999-01-01,1999-01-01,,,,,Life.Empty,Life.BullEnd,Life.Bear,Life.BearRecovery,Life.BearEnd,,,,,,0.37352,,,3.07,-4.16,4.61,-1.3,1.57,-2.33,3.17,-1.03,10.0,20.0,10.0,10.0,10.0,10.0,15.0,20.0,,
2004-11-26,PPG,,,,,,,0,0,0,,0,0,0,,,0.37478,0.37399,0.37739,0.39012,-0.01629,,,3e-05,,,-0.00353,,,-0.00391,,,-0.01706,,,-0.00161,,,-0.00077,0.01276,-0.01354,,,,0.37425,0.38105,-0.0068,-0.00702,-0.00942,0.0024,0.00241,,,,,0.0131,0.0,0.00494,-0.00316,1.56561,61.02293,51.12911,50.8752,,,,49.8008,30.67729,,,38.47037,23.89585,,,,,0.01716,0.0203,,,,,,,,,,,,-0.15,0.0,0.0,0.0,0.0,0.0,0.0,1999-01-01,1999-01-01,1999-01-01,1999-01-01,1999-01-01,1999-01-01,0.381,0.389,0.392,0.366,0.366,0.387,2004-10-22,2004-09-17,2004-09-03,2004-11-05,2004-10-15,2004-09-10,0.0,0.0,0.0,100.0,100.0,100.0,1999-01-01,1999-01-01,1999-01-01,1999-01-01,1999-01-01,1999-01-01,0.0,0.0,0.0,-0.029,100.0,100.0,1999-01-01,1999-01-01,1999-01-01,2004-08-06,1999-01-01,1999-01-01,0.0,0.0,0.0,-0.022,100.0,100.0,1999-01-01,1999-01-01,1999-01-01,2004-07-09,1999-01-01,1999-01-01,0.0,0.0,0.0,-0.037,100.0,100.0,1999-01-01,1999-01-01,1999-01-01,2004-07-23,1999-01-01,1999-01-01,0.0,0.0,0.0,100.0,100.0,100.0,1999-01-01,1999-01-01,1999-01-01,1999-01-01,1999-01-01,1999-01-01,0.0,0.0,0.0,100.0,100.0,100.0,1999-01-01,1999-01-01,1999-01-01,1999-01-01,1999-01-01,1999-01-01,0.0,0.0,0.0,100.0,100.0,100.0,1999-01-01,1999-01-01,1999-01-01,1999-01-01,1999-01-01,1999-01-01,0.0,0.0,0.0,100.0,100.0,100.0,1999-01-01,1999-01-01,1999-01-01,1999-01-01,1999-01-01,1999-01-01,32700,48000,72000,-55.54,-33.49,54.71,0.0,0.0,0.0,-0.016,100.0,100.0,0.002,0.0,0.0,-0.003,100.0,100.0,0.0,0.0,0.0,-0.01453,100.0,100.0,0.0,0.0,0.0,100.0,100.0,100.0,44.622,60.159,64.94,13.347,13.347,54.98,0.0,0.0,0.0,100.0,100.0,100.0,2004-11-19,1999-01-01,1999-01-01,2004-06-18,1999-01-01,1999-01-01,1999-01-01,1999-01-01,1999-01-01,2004-07-30,1999-01-01,1999-01-01,0,0,0,2037,0,0,1999-01-01,1999-01-01,1999-01-01,1999-01-01,1999-01-01,1999-01-01,2004-10-22,2004-09-17,2004-09-03,2004-11-05,2004-10-15,2004-09-10,1999-01-01,1999-01-01,1999-01-01,1999-01-01,1999-01-01,1999-01-01,72000.0,,,,Life.Empty,Life.BullEnd,Life.Bear,Life.BearRecovery,Life.BearEnd,,,,,n2p,0.38202,,,0.78,-4.16,4.61,-1.3,1.57,-2.33,3.17,-1.03,5.0,20.0,10.0,10.0,10.0,10.0,15.0,20.0,,
2004-12-03,PPG,,,,,,,0,0,0,,0,0,0,,0.389,0.37958,0.37676,0.37852,0.39008,-0.01539,,,-0.00046,,,-0.00292,,,-0.00393,-0.004,,-0.0161,,,-0.00179,,,-0.0007,0.01248,-0.01318,,,,0.37655,0.38165,-0.0051,-0.00644,-0.00883,0.00238,0.0024,,,,,0.0052,0.0,0.00496,-0.00316,1.57014,61.09155,51.32212,51.12911,,,,56.61605,43.37401,,56.616,59.72473,38.77119,,,,,0.01705,0.01986,,,,,,,,,,,,-0.15,0.0,0.0,0.0,0.0,0.0,0.0,1999-01-01,1999-01-01,1999-01-01,1999-01-01,1999-01-01,1999-01-01,0.389,0.381,0.389,0.366,0.366,0.387,2004-12-03,2004-10-22,2004-09-17,2004-11-05,2004-10-15,2004-09-10,0.0,0.0,0.0,100.0,100.0,100.0,1999-01-01,1999-01-01,1999-01-01,1999-01-01,1999-01-01,1999-01-01,0.0,0.0,0.0,-0.029,100.0,100.0,1999-01-01,1999-01-01,1999-01-01,2004-08-06,1999-01-01,1999-01-01,0.0,0.0,0.0,-0.022,100.0,100.0,1999-01-01,1999-01-01,1999-01-01,2004-07-09,1999-01-01,1999-01-01,0.0,0.0,0.0,-0.037,100.0,100.0,1999-01-01,1999-01-01,1999-01-01,2004-07-23,1999-01-01,1999-01-01,0.0,0.0,0.0,100.0,100.0,100.0,1999-01-01,1999-01-01,1999-01-01,1999-01-01,1999-01-01,1999-01-01,0.0,0.0,0.0,-0.004,100.0,100.0,1999-01-01,1999-01-01,1999-01-01,2004-12-03,1999-01-01,1999-01-01,0.0,0.0,0.0,100.0,100.0,100.0,1999-01-01,1999-01-01,1999-01-01,1999-01-01,1999-01-01,1999-01-01,0.0,0.0,0.0,100.0,100.0,100.0,1999-01-01,1999-01-01,1999-01-01,1999-01-01,1999-01-01,1999-01-01,48000,72000,123500,-33.49,54.71,59.46,0.0,0.0,0.0,-0.016,100.0,100.0,0.002,0.0,0.0,-0.003,100.0,100.0,0.0,0.0,0.0,-0.01453,100.0,100.0,0.0,0.0,0.0,100.0,100.0,100.0,56.616,44.622,60.159,13.347,13.347,54.98,0.0,0.0,0.0,100.0,100.0,100.0,2004-11-19,1999-01-01,1999-01-01,2004-06-18,1999-01-01,1999-01-01,1999-01-01,1999-01-01,1999-01-01,2004-07-30,1999-01-01,1999-01-01,0,0,0,2037,0,0,1999-01-01,1999-01-01,1999-01-01,1999-01-01,1999-01-01,1999-01-01,2004-12-03,2004-10-22,2004-09-17,2004-11-05,2004-10-15,2004-09-10,1999-01-01,1999-01-01,1999-01-01,1999-01-01,1999-01-01,1999-01-01,,,,,Life.Empty,Life.BullEnd,Life.Bear,Life.BearRecovery,Life.BearEnd,,,,n2p,p2p,0.3853,,0.385,-4.23,4.61,-1.3,1.57,-2.33,3.17,-1.03,2.33,20.0,10.0,10.0,10.0,10.0,15.0,20.0,30.0,,
2004-12-10,PPG,,,,,,,0,0,0,,0,0,0,0.379,,0.37932,0.37713,0.37854,0.38953,-0.01452,,,-0.00084,,,-0.00234,,,-0.00388,,,-0.01516,,,-0.00185,-0.002,,-0.00064,0.01217,-0.01281,,,,0.3769,0.38144,-0.00455,-0.00589,-0.00824,0.00235,0.00238,,,,,-0.0,-0.0104,0.00299,-0.0039,0.76557,43.361,51.48423,51.32212,,,,40.67358,49.03014,40.674,,64.57207,54.25572,,,,,0.01714,0.01945,,,,,,,,,,,,-0.15,0.0,0.0,0.0,0.0,0.0,0.0,1999-01-01,1999-01-01,1999-01-01,1999-01-01,1999-01-01,1999-01-01,0.389,0.381,0.389,0.379,0.366,0.366,2004-12-03,2004-10-22,2004-09-17,2004-12-10,2004-11-05,2004-10-15,0.0,0.0,0.0,100.0,100.0,100.0,1999-01-01,1999-01-01,1999-01-01,1999-01-01,1999-01-01,1999-01-01,0.0,0.0,0.0,-0.029,100.0,100.0,1999-01-01,1999-01-01,1999-01-01,2004-08-06,1999-01-01,1999-01-01,0.0,0.0,0.0,-0.022,100.0,100.0,1999-01-01,1999-01-01,1999-01-01,2004-07-09,1999-01-01,1999-01-01,0.0,0.0,0.0,-0.037,100.0,100.0,1999-01-01,1999-01-01,1999-01-01,2004-07-23,1999-01-01,1999-01-01,0.0,0.0,0.0,100.0,100.0,100.0,1999-01-01,1999-01-01,1999-01-01,1999-01-01,1999-01-01,1999-01-01,0.0,0.0,0.0,-0.004,100.0,100.0,1999-01-01,1999-01-01,1999-01-01,2004-12-03,1999-01-01,1999-01-01,0.0,0.0,0.0,-0.002,100.0,100.0,1999-01-01,1999-01-01,1999-01-01,2004-12-10,1999-01-01,1999-01-01,0.0,0.0,0.0,100.0,100.0,100.0,1999-01-01,1999-01-01,1999-01-01,1999-01-01,1999-01-01,1999-01-01,72000,123500,56100,54.71,59.46,3.33,0.0,0.0,0.0,-0.016,100.0,100.0,0.002,0.0,0.0,-0.003,100.0,100.0,0.0,0.0,0.0,-0.01453,100.0,100.0,0.0,0.0,0.0,100.0,100.0,100.0,56.616,44.622,60.159,40.674,13.347,13.347,0.0,0.0,0.0,100.0,100.0,100.0,2004-11-19,1999-01-01,1999-01-01,2004-06-18,1999-01-01,1999-01-01,1999-01-01,1999-01-01,1999-01-01,2004-07-30,1999-01-01,1999-01-01,0,0,0,2037,0,0,1999-01-01,1999-01-01,1999-01-01,1999-01-01,1999-01-01,1999-01-01,2004-12-03,2004-10-22,2004-09-17,2004-12-10,2004-11-05,2004-10-15,1999-01-01,1999-01-01,1999-01-01,1999-01-01,1999-01-01,1999-01-01,,,,,Life.Empty,Life.BullEnd,Life.Bear,Life.BearRecovery,Life.BearEnd,,,n2p,p2p,,0.38205,,,-3.42,4.61,-1.3,1.57,-2.33,3.17,-1.03,2.33,15.0,10.0,10.0,10.0,10.0,15.0,20.0,30.0,,
2004-12-17,PPG,,,,,,,0,0,0,,0,0,0,,0.381,0.38002,0.3779,0.37882,0.38913,-0.01367,,,-0.00112,,,-0.0018,,,-0.00378,,,-0.01423,,,-0.00184,,,-0.00057,0.01186,-0.01243,,,,0.37759,0.38144,-0.00385,-0.00535,-0.00766,0.00231,0.00235,,,,,0.0026,0.0,0.00317,-0.00354,0.89516,47.23404,51.65064,51.48423,,,,47.40933,48.23298,,47.409,56.36246,60.21975,,,,,0.01703,0.01909,,,,,,,,,,,,-0.15,0.0,0.0,0.0,0.0,0.0,0.0,1999-01-01,1999-01-01,1999-01-01,1999-01-01,1999-01-01,1999-01-01,0.381,0.389,0.381,0.379,0.366,0.366,2004-12-17,2004-12-03,2004-10-22,2004-12-10,2004-11-05,2004-10-15,0.0,0.0,0.0,100.0,100.0,100.0,1999-01-01,1999-01-01,1999-01-01,1999-01-01,1999-01-01,1999-01-01,0.0,0.0,0.0,-0.029,100.0,100.0,1999-01-01,1999-01-01,1999-01-01,2004-08-06,1999-01-01,1999-01-01,0.0,0.0,0.0,-0.022,100.0,100.0,1999-01-01,1999-01-01,1999-01-01,2004-07-09,1999-01-01,1999-01-01,0.0,0.0,0.0,-0.037,100.0,100.0,1999-01-01,1999-01-01,1999-01-01,2004-07-23,1999-01-01,1999-01-01,0.0,0.0,0.0,100.0,100.0,100.0,1999-01-01,1999-01-01,1999-01-01,1999-01-01,1999-01-01,1999-01-01,0.0,0.0,0.0,-0.004,100.0,100.0,1999-01-01,1999-01-01,1999-01-01,2004-12-03,1999-01-01,1999-01-01,0.0,0.0,0.0,-0.002,100.0,100.0,1999-01-01,1999-01-01,1999-01-01,2004-12-10,1999-01-01,1999-01-01,0.0,0.0,0.0,100.0,100.0,100.0,1999-01-01,1999-01-01,1999-01-01,1999-01-01,1999-01-01,1999-01-01,123500,56100,44000,59.46,3.33,-11.13,0.0,0.0,0.0,-0.016,100.0,100.0,0.002,0.0,0.0,-0.003,100.0,100.0,0.0,0.0,0.0,-0.01453,100.0,100.0,0.0,0.0,0.0,100.0,100.0,100.0,47.409,56.616,44.622,40.674,13.347,13.347,0.0,0.0,0.0,100.0,100.0,100.0,2004-11-19,1999-01-01,1999-01-01,2004-06-18,1999-01-01,1999-01-01,1999-01-01,1999-01-01,1999-01-01,2004-07-30,1999-01-01,1999-01-01,0,0,0,2037,0,0,1999-01-01,1999-01-01,1999-01-01,1999-01-01,1999-01-01,1999-01-01,2004-12-17,2004-12-03,2004-10-22,2004-12-10,2004-11-05,2004-10-15,1999-01-01,1999-01-01,1999-01-01,1999-01-01,1999-01-01,1999-01-01,,,,,Life.Empty,Life.BullEnd,Life.Bear,Life.BearRecovery,Life.BearEnd,,n2p,p2p,,,0.37748,,,-2.25,4.61,-1.3,1.57,-2.33,3.17,-1.03,2.33,10.0,10.0,10.0,10.0,10.0,15.0,20.0,30.0,,
2004-12-24,PPG,,,,,,,0,0,0,,0,0,0,,,0.37611,0.37616,0.37782,0.38811,-0.01283,,,-0.00134,,,-0.00129,,,-0.00365,,,-0.01331,,,-0.00178,,,-0.00048,0.01154,-0.01202,,,,0.37616,0.38047,-0.00431,-0.00483,-0.00709,0.00227,0.00231,,,,,-0.0,-0.0131,0.00299,-0.00448,0.66667,40.0,51.84791,51.65064,,,,15.29412,34.45901,,,29.06862,50.00105,,,,,0.01675,0.01875,,,,,,,,,,,,-0.15,0.0,0.0,0.0,0.0,0.0,0.0,1999-01-01,1999-01-01,1999-01-01,1999-01-01,1999-01-01,1999-01-01,0.381,0.389,0.381,0.379,0.366,0.366,2004-12-17,2004-12-03,2004-10-22,2004-12-10,2004-11-05,2004-10-15,0.0,0.0,0.0,100.0,100.0,100.0,1999-01-01,1999-01-01,1999-01-01,1999-01-01,1999-01-01,1999-01-01,0.0,0.0,0.0,-0.029,100.0,100.0,1999-01-01,1999-01-01,1999-01-01,2004-08-06,1999-01-01,1999-01-01,0.0,0.0,0.0,-0.022,100.0,100.0,1999-01-01,1999-01-01,1999-01-01,2004-07-09,1999-01-01,1999-01-01,0.0,0.0,0.0,-0.037,100.0,100.0,1999-01-01,1999-01-01,1999-01-01,2004-07-23,1999-01-01,1999-01-01,0.0,0.0,0.0,100.0,100.0,100.0,1999-01-01,1999-01-01,1999-01-01,1999-01-01,1999-01-01,1999-01-01,0.0,0.0,0.0,-0.004,100.0,100.0,1999-01-01,1999-01-01,1999-01-01,2004-12-03,1999-01-01,1999-01-01,0.0,0.0,0.0,-0.002,100.0,100.0,1999-01-01,1999-01-01,1999-01-01,2004-12-10,1999-01-01,1999-01-01,0.0,0.0,0.0,100.0,100.0,100.0,1999-01-01,1999-01-01,1999-01-01,1999-01-01,1999-01-01,1999-01-01,56100,44000,26700,3.33,-11.13,-43.29,0.0,0.0,0.0,-0.016,100.0,100.0,0.002,0.0,0.0,-0.003,100.0,100.0,0.0,0.0,0.0,-0.01453,100.0,100.0,0.0,0.0,0.0,100.0,100.0,100.0,47.409,56.616,44.622,40.674,13.347,13.347,0.0,0.0,0.0,100.0,100.0,100.0,2004-11-19,1999-01-01,1999-01-01,2004-06-18,1999-01-01,1999-01-01,1999-01-01,1999-01-01,1999-01-01,2004-07-30,1999-01-01,1999-01-01,0,0,0,2037,0,0,1999-01-01,1999-01-01,1999-01-01,1999-01-01,1999-01-01,1999-01-01,2004-12-17,2004-12-03,2004-10-22,2004-12-10,2004-11-05,2004-10-15,1999-01-01,1999-01-01,1999-01-01,1999-01-01,1999-01-01,1999-01-01,,,,,Life.Empty,Life.BullEnd,Life.Bear,Life.BearRecovery,Life.BearEnd,n2p,p2p,,,,0.37092,,,-0.52,4.61,-1.3,1.57,-2.33,3.17,-1.03,2.33,5.0,10.0,10.0,10.0,10.0,15.0,20.0,30.0,,
2004-12-31,PPG,,,,,,,0,0,0,,0,0,0,0.366,,0.37264,0.37426,0.37666,0.38702,-0.01202,,,-0.00148,,,-0.00079,,,-0.00351,,,-0.01238,,,-0.0017,,,-0.00036,0.01123,-0.01159,-0.00153,,,0.37455,0.37937,-0.00482,-0.00431,-0.00654,0.00222,0.00227,,,,,-0.0,-0.0026,0.00299,-0.00374,0.79924,44.42083,52.07215,51.84791,,,,7.64706,23.45017,7.647,,15.16204,33.53104,,,,,0.01574,0.01844,,,,,,,,,,,,-0.15,0.0,0.0,0.0,0.0,0.0,0.0,1999-01-01,1999-01-01,1999-01-01,1999-01-01,1999-01-01,1999-01-01,0.381,0.389,0.381,0.366,0.379,0.366,2004-12-17,2004-12-03,2004-10-22,2004-12-31,2004-12-10,2004-11-05,0.0,0.0,0.0,100.0,100.0,100.0,1999-01-01,1999-01-01,1999-01-01,1999-01-01,1999-01-01,1999-01-01,0.0,0.0,0.0,-0.029,100.0,100.0,1999-01-01,1999-01-01,1999-01-01,2004-08-06,1999-01-01,1999-01-01,0.0,0.0,0.0,-0.022,100.0,100.0,1999-01-01,1999-01-01,1999-01-01,2004-07-09,1999-01-01,1999-01-01,0.0,0.0,0.0,-0.037,100.0,100.0,1999-01-01,1999-01-01,1999-01-01,2004-07-23,1999-01-01,1999-01-01,0.0,0.0,0.0,100.0,100.0,100.0,1999-01-01,1999-01-01,1999-01-01,1999-01-01,1999-01-01,1999-01-01,0.0,0.0,0.0,-0.004,100.0,100.0,1999-01-01,1999-01-01,1999-01-01,2004-12-03,1999-01-01,1999-01-01,0.0,0.0,0.0,-0.002,100.0,100.0,1999-01-01,1999-01-01,1999-01-01,2004-12-10,1999-01-01,1999-01-01,0.0,0.0,0.0,100.0,100.0,100.0,1999-01-01,1999-01-01,1999-01-01,1999-01-01,1999-01-01,1999-01-01,44000,26700,64000,-11.13,-43.29,6.23,0.0,0.0,0.0,-0.016,100.0,100.0,0.002,0.0,0.0,-0.003,100.0,100.0,0.0,0.0,0.0,-0.01453,100.0,100.0,0.0,0.0,0.0,100.0,100.0,100.0,47.409,56.616,44.622,7.647,40.674,13.347,0.0,0.0,0.0,100.0,100.0,100.0,2004-11-19,1999-01-01,1999-01-01,2004-06-18,1999-01-01,1999-01-01,1999-01-01,1999-01-01,1999-01-01,2004-07-30,1999-01-01,1999-01-01,0,0,0,2037,0,0,1999-01-01,1999-01-01,1999-01-01,1999-01-01,1999-01-01,1999-01-01,2004-12-17,2004-12-03,2004-10-22,2004-12-31,2004-12-10,2004-11-05,1999-01-01,1999-01-01,1999-01-01,1999-01-01,1999-01-01,1999-01-01,-64000.0,,,,Life.Empty,Life.BullEnd,Life.Bear,Life.BearRecovery,Life.BearEnd,p2p,,,,n2p,0.36898,0.369,,4.61,-1.3,1.57,-2.33,3.17,-1.03,2.33,-0.76,10.0,10.0,10.0,10.0,15.0,20.0,30.0,10.0,,
2005-01-07,PPG,,,,,,,0,0,0,,0,0,0,,,0.37383,0.37461,0.37662,0.38649,-0.01122,,,-0.00158,,,-0.00031,,,-0.00337,,,-0.01144,,,-0.00163,,,-0.00022,0.01091,-0.01113,-0.00174,,,0.3748,0.37914,-0.00433,-0.00381,-0.00599,0.00218,0.00222,,,,,0.0105,0.0,0.00374,-0.00354,1.05444,51.32483,52.30606,52.07215,,,,38.52941,20.4902,,,11.1465,18.45905,,,,,0.01536,0.01816,,,,,,,,,,,,-0.15,0.0,0.0,0.0,0.0,0.0,0.0,1999-01-01,1999-01-01,1999-01-01,1999-01-01,1999-01-01,1999-01-01,0.381,0.389,0.381,0.366,0.379,0.366,2004-12-17,2004-12-03,2004-10-22,2004-12-31,2004-12-10,2004-11-05,0.0,0.0,0.0,100.0,100.0,100.0,1999-01-01,1999-01-01,1999-01-01,1999-01-01,1999-01-01,1999-01-01,0.0,0.0,0.0,-0.029,100.0,100.0,1999-01-01,1999-01-01,1999-01-01,2004-08-06,1999-01-01,1999-01-01,0.0,0.0,0.0,-0.022,100.0,100.0,1999-01-01,1999-01-01,1999-01-01,2004-07-09,1999-01-01,1999-01-01,0.0,0.0,0.0,-0.037,100.0,100.0,1999-01-01,1999-01-01,1999-01-01,2004-07-23,1999-01-01,1999-01-01,0.0,0.0,0.0,100.0,100.0,100.0,1999-01-01,1999-01-01,1999-01-01,1999-01-01,1999-01-01,1999-01-01,0.0,0.0,0.0,-0.004,100.0,100.0,1999-01-01,1999-01-01,1999-01-01,2004-12-03,1999-01-01,1999-01-01,0.0,0.0,0.0,-0.002,100.0,100.0,1999-01-01,1999-01-01,1999-01-01,2004-12-10,1999-01-01,1999-01-01,0.0,0.0,0.0,100.0,100.0,100.0,1999-01-01,1999-01-01,1999-01-01,1999-01-01,1999-01-01,1999-01-01,26700,64000,85800,-43.29,6.23,31.03,0.0,0.0,0.0,-0.016,100.0,100.0,0.002,0.0,0.0,-0.003,100.0,100.0,0.0,0.0,0.0,-0.01453,100.0,100.0,0.0,0.0,0.0,100.0,100.0,100.0,47.409,56.616,44.622,7.647,40.674,13.347,0.0,0.0,0.0,100.0,100.0,100.0,2004-11-19,1999-01-01,1999-01-01,2004-06-18,1999-01-01,1999-01-01,1999-01-01,1999-01-01,1999-01-01,2004-07-30,1999-01-01,1999-01-01,0,0,0,2037,0,0,1999-01-01,1999-01-01,1999-01-01,1999-01-01,1999-01-01,1999-01-01,2004-12-17,2004-12-03,2004-10-22,2004-12-31,2004-12-10,2004-11-05,1999-01-01,1999-01-01,1999-01-01,1999-01-01,1999-01-01,1999-01-01,,,,,Life.Empty,Life.BullEnd,Life.Bear,Life.BearRecovery,Life.BearEnd,,,,n2p,p2p,0.37682,,,2.44,-1.3,1.57,-2.33,3.17,-1.03,2.33,-0.76,5.0,10.0,10.0,10.0,15.0,20.0,30.0,10.0,,
2005-01-14,PPG,,,,,,,0,0,0,,0,0,0,,,0.37895,0.37726,0.37782,0.38662,-0.01044,,,-0.00164,,,0.00014,,,-0.00323,,,-0.01049,,,-0.00158,,,-5e-05,0.01058,-0.01063,-0.00189,,,0.37702,0.37988,-0.00286,-0.00333,-0.00546,0.00213,0.00218,,,,,0.013,0.0,0.00466,-0.00336,1.38936,58.14782,52.54004,52.30606,,,,62.44019,36.20555,,,31.12949,19.14601,,,,,0.01632,0.01791,,,-0.15,,,,,,,,,,0.0,0.0,0.0,0.0,0.0,0.0,1999-01-01,1999-01-01,1999-01-01,1999-01-01,1999-01-01,1999-01-01,0.381,0.389,0.381,0.366,0.379,0.366,2004-12-17,2004-12-03,2004-10-22,2004-12-31,2004-12-10,2004-11-05,0.0,0.0,0.0,100.0,100.0,100.0,1999-01-01,1999-01-01,1999-01-01,1999-01-01,1999-01-01,1999-01-01,0.0,0.0,0.0,-0.029,100.0,100.0,1999-01-01,1999-01-01,1999-01-01,2004-08-06,1999-01-01,1999-01-01,0.0,0.0,0.0,-0.022,100.0,100.0,1999-01-01,1999-01-01,1999-01-01,2004-07-09,1999-01-01,1999-01-01,0.0,0.0,0.0,-0.037,100.0,100.0,1999-01-01,1999-01-01,1999-01-01,2004-07-23,1999-01-01,1999-01-01,0.0,0.0,0.0,100.0,100.0,100.0,1999-01-01,1999-01-01,1999-01-01,1999-01-01,1999-01-01,1999-01-01,0.0,0.0,0.0,-0.004,100.0,100.0,1999-01-01,1999-01-01,1999-01-01,2004-12-03,1999-01-01,1999-01-01,0.0,0.0,0.0,-0.002,100.0,100.0,1999-01-01,1999-01-01,1999-01-01,2004-12-10,1999-01-01,1999-01-01,0.0,0.0,0.0,100.0,100.0,100.0,1999-01-01,1999-01-01,1999-01-01,1999-01-01,1999-01-01,1999-01-01,64000,85800,258800,6.23,31.03,131.5,0.0,0.0,0.0,-0.016,100.0,100.0,0.002,0.0,0.0,-0.003,100.0,100.0,0.0,0.0,0.0,-0.01453,100.0,100.0,0.0,0.0,0.0,100.0,100.0,100.0,47.409,56.616,44.622,7.647,40.674,13.347,0.0,0.0,0.0,100.0,100.0,100.0,2004-11-19,1999-01-01,1999-01-01,2004-06-18,1999-01-01,1999-01-01,1999-01-01,1999-01-01,1999-01-01,2004-07-30,1999-01-01,1999-01-01,0,0,0,2037,0,0,1999-01-01,1999-01-01,1999-01-01,1999-01-01,1999-01-01,1999-01-01,2004-12-17,2004-12-03,2004-10-22,2004-12-31,2004-12-10,2004-11-05,1999-01-01,1999-01-01,1999-01-01,1999-01-01,1999-01-01,1999-01-01,,258800.0,,,Life.BullEnd,Life.Bear,Life.BearRecovery,Life.BearEnd,Life.BullStart,,,n2p,p2p,p2p,0.38595,,0.386,-1.28,1.57,-2.33,3.17,-1.03,2.33,-0.76,0.0,10.0,10.0,10.0,15.0,20.0,30.0,10.0,5.0,,
2005-01-21,PPG,,,,,,,0,0,0,,0,0,0,,0.389,0.38237,0.37943,0.3789,0.38675,-0.00967,,,-0.00168,,,0.00058,,,-0.0031,,,-0.00953,,,-0.00157,,-0.002,0.00015,0.01025,-0.0101,-0.002,,,0.37889,0.38057,-0.00168,-0.00285,-0.00494,0.00209,0.00213,,,,,0.0,0.0,0.00466,-0.00299,1.5622,60.97106,52.76669,52.54004,,,,62.44019,54.46993,,62.44,51.11248,31.12949,,,,,0.01609,0.01768,,,-0.15,,,,,,,,,,0.0,0.0,0.0,0.0,0.0,0.0,1999-01-01,1999-01-01,1999-01-01,1999-01-01,1999-01-01,1999-01-01,0.389,0.381,0.389,0.366,0.379,0.366,2005-01-21,2004-12-17,2004-12-03,2004-12-31,2004-12-10,2004-11-05,0.0,0.0,0.0,100.0,100.0,100.0,1999-01-01,1999-01-01,1999-01-01,1999-01-01,1999-01-01,1999-01-01,0.0,0.0,0.0,-0.029,100.0,100.0,1999-01-01,1999-01-01,1999-01-01,2004-08-06,1999-01-01,1999-01-01,0.0,0.0,0.0,-0.022,100.0,100.0,1999-01-01,1999-01-01,1999-01-01,2004-07-09,1999-01-01,1999-01-01,0.0,0.0,0.0,-0.037,100.0,100.0,1999-01-01,1999-01-01,1999-01-01,2004-07-23,1999-01-01,1999-01-01,0.0,0.0,0.0,100.0,100.0,100.0,1999-01-01,1999-01-01,1999-01-01,1999-01-01,1999-01-01,1999-01-01,0.0,0.0,0.0,-0.004,100.0,100.0,1999-01-01,1999-01-01,1999-01-01,2004-12-03,1999-01-01,1999-01-01,-0.002,0.0,0.0,-0.002,100.0,100.0,2005-01-21,1999-01-01,1999-01-01,2004-12-10,1999-01-01,1999-01-01,0.0,0.0,0.0,100.0,100.0,100.0,1999-01-01,1999-01-01,1999-01-01,1999-01-01,1999-01-01,1999-01-01,85800,258800,24400,31.03,131.5,-9.69,0.0,0.0,0.0,-0.016,100.0,100.0,0.002,0.0,0.0,-0.003,100.0,100.0,0.0,0.0,0.0,-0.01453,100.0,100.0,0.0,0.0,0.0,100.0,100.0,100.0,62.44,47.409,56.616,7.647,40.674,13.347,0.0,0.0,0.0,100.0,100.0,100.0,2004-11-19,1999-01-01,1999-01-01,2004-06-18,1999-01-01,1999-01-01,1999-01-01,1999-01-01,1999-01-01,2004-07-30,1999-01-01,1999-01-01,0,0,0,2037,0,0,1999-01-01,1999-01-01,1999-01-01,1999-01-01,1999-01-01,1999-01-01,2005-01-21,2004-12-17,2004-12-03,2004-12-31,2004-12-10,2004-11-05,1999-01-01,1999-01-01,1999-01-01,1999-01-01,1999-01-01,1999-01-01,,,24400.0,,Life.BullEnd,Life.Bear,Life.BearRecovery,Life.BearEnd,Life.BullStart,,n2p,p2p,p2p,p2n,0.38528,,,-1.11,1.57,-2.33,3.17,-1.03,2.33,-0.76,0.0,5.0,10.0,10.0,15.0,20.0,30.0,10.0,5.0,,
2005-01-28,PPG,,,,,,,0,0,0,,0,0,0,0.374,,0.37941,0.37835,0.37839,0.3861,-0.00892,,,-0.00171,,,0.00098,,,-0.003,,,-0.00857,,,-0.0016,,,0.00035,0.0099,-0.00955,-0.00209,,,0.37806,0.38005,-0.00199,-0.00239,-0.00443,0.00204,0.00209,,,,,-0.0,-0.0157,0.00354,-0.00411,0.86261,46.31186,52.98048,52.76669,,,,19.89796,48.25945,19.898,,46.59864,42.94687,43.00827,,,,0.01624,0.01747,,,-0.15,,,,,,,,,,0.0,0.0,0.0,0.0,0.0,0.0,1999-01-01,1999-01-01,1999-01-01,1999-01-01,1999-01-01,1999-01-01,0.389,0.381,0.389,0.374,0.366,0.379,2005-01-21,2004-12-17,2004-12-03,2005-01-28,2004-12-31,2004-12-10,0.0,0.0,0.0,100.0,100.0,100.0,1999-01-01,1999-01-01,1999-01-01,1999-01-01,1999-01-01,1999-01-01,0.0,0.0,0.0,-0.029,100.0,100.0,1999-01-01,1999-01-01,1999-01-01,2004-08-06,1999-01-01,1999-01-01,0.0,0.0,0.0,-0.022,100.0,100.0,1999-01-01,1999-01-01,1999-01-01,2004-07-09,1999-01-01,1999-01-01,0.0,0.0,0.0,-0.037,100.0,100.0,1999-01-01,1999-01-01,1999-01-01,2004-07-23,1999-01-01,1999-01-01,0.0,0.0,0.0,100.0,100.0,100.0,1999-01-01,1999-01-01,1999-01-01,1999-01-01,1999-01-01,1999-01-01,0.0,0.0,0.0,-0.004,100.0,100.0,1999-01-01,1999-01-01,1999-01-01,2004-12-03,1999-01-01,1999-01-01,-0.002,0.0,0.0,-0.002,100.0,100.0,2005-01-21,1999-01-01,1999-01-01,2004-12-10,1999-01-01,1999-01-01,0.0,0.0,0.0,100.0,100.0,100.0,1999-01-01,1999-01-01,1999-01-01,1999-01-01,1999-01-01,1999-01-01,258800,24400,94000,131.5,-9.69,2.22,0.0,0.0,0.0,-0.016,100.0,100.0,0.002,0.0,0.0,-0.003,100.0,100.0,0.0,0.0,0.0,-0.01453,100.0,100.0,0.0,0.0,0.0,100.0,100.0,100.0,62.44,47.409,56.616,19.898,7.647,40.674,0.0,0.0,0.0,100.0,100.0,100.0,2004-11-19,1999-01-01,1999-01-01,2004-06-18,1999-01-01,1999-01-01,1999-01-01,1999-01-01,1999-01-01,2004-07-30,1999-01-01,1999-01-01,0,0,0,2037,0,0,1999-01-01,1999-01-01,1999-01-01,1999-01-01,1999-01-01,1999-01-01,2005-01-21,2004-12-17,2004-12-03,2005-01-28,2004-12-31,2004-12-10,1999-01-01,1999-01-01,1999-01-01,1999-01-01,1999-01-01,1999-01-01,,,,,Life.BullEnd,Life.Bear,Life.BearRecovery,Life.BearEnd,Life.BullStart,n2p,p2p,p2p,p2n,,0.38135,0.381,,1.48,-2.33,3.17,-1.03,2.33,-0.76,0.0,-1.53,10.0,10.0,15.0,20.0,30.0,10.0,5.0,15.0,,
2005-02-04,PPG,,,,,,,0,0,0,,0,0,0,,,0.38267,0.38033,0.37942,0.38625,-0.00818,,,-0.00173,,,0.00135,,,-0.0029,,,-0.00761,,,-0.00168,,,0.00057,0.00953,-0.00896,-0.00214,,,0.37978,0.38073,-0.00095,-0.00195,-0.00393,0.00198,0.00204,,,,,0.0157,0.0,0.00466,-0.00317,1.47072,59.52598,53.18053,52.98048,,,,59.94898,47.42904,,,45.65025,47.78713,43.59779,,,,0.01658,0.01727,,,-0.15,,,,,,,,,,0.0,0.0,0.0,0.0,0.0,0.0,1999-01-01,1999-01-01,1999-01-01,1999-01-01,1999-01-01,1999-01-01,0.389,0.381,0.389,0.374,0.366,0.379,2005-01-21,2004-12-17,2004-12-03,2005-01-28,2004-12-31,2004-12-10,0.0,0.0,0.0,100.0,100.0,100.0,1999-01-01,1999-01-01,1999-01-01,1999-01-01,1999-01-01,1999-01-01,0.0,0.0,0.0,-0.029,100.0,100.0,1999-01-01,1999-01-01,1999-01-01,2004-08-06,1999-01-01,1999-01-01,0.0,0.0,0.0,-0.022,100.0,100.0,1999-01-01,1999-01-01,1999-01-01,2004-07-09,1999-01-01,1999-01-01,0.0,0.0,0.0,-0.037,100.0,100.0,1999-01-01,1999-01-01,1999-01-01,2004-07-23,1999-01-01,1999-01-01,0.0,0.0,0.0,100.0,100.0,100.0,1999-01-01,1999-01-01,1999-01-01,1999-01-01,1999-01-01,1999-01-01,0.0,0.0,0.0,-0.004,100.0,100.0,1999-01-01,1999-01-01,1999-01-01,2004-12-03,1999-01-01,1999-01-01,-0.002,0.0,0.0,-0.002,100.0,100.0,2005-01-21,1999-01-01,1999-01-01,2004-12-10,1999-01-01,1999-01-01,0.0,0.0,0.0,100.0,100.0,100.0,1999-01-01,1999-01-01,1999-01-01,1999-01-01,1999-01-01,1999-01-01,24400,94000,57000,-9.69,2.22,-53.5,0.0,0.0,0.0,-0.016,100.0,100.0,0.002,0.0,0.0,-0.003,100.0,100.0,0.0,0.0,0.0,-0.01453,100.0,100.0,0.0,0.0,0.0,100.0,100.0,100.0,62.44,47.409,56.616,19.898,7.647,40.674,0.0,0.0,0.0,100.0,100.0,100.0,2004-11-19,1999-01-01,1999-01-01,2004-06-18,1999-01-01,1999-01-01,1999-01-01,1999-01-01,1999-01-01,2004-07-30,1999-01-01,1999-01-01,0,0,0,2037,0,0,1999-01-01,1999-01-01,1999-01-01,1999-01-01,1999-01-01,1999-01-01,2005-01-21,2004-12-17,2004-12-03,2005-01-28,2004-12-31,2004-12-10,1999-01-01,1999-01-01,1999-01-01,1999-01-01,1999-01-01,1999-01-01,,,57000.0,,Life.BullEnd,Life.Bear,Life.BearRecovery,Life.BearEnd,Life.BullStart,p2p,p2p,p2n,,p2n,0.38528,,,0.45,-2.33,3.17,-1.03,2.33,-0.76,0.0,-1.53,5.0,10.0,15.0,20.0,30.0,10.0,5.0,15.0,,
2005-02-11,PPG,,,,,,,0,0,0,,0,0,0,,0.389,0.38485,0.38194,0.38035,0.3864,-0.00746,,,-0.00174,,,0.00169,,,-0.00282,,,-0.00667,,,-0.00181,,,0.00079,0.00915,-0.00835,-0.00218,,,0.38123,0.38135,-0.00013,-0.00153,-0.00345,0.00192,0.00198,,,,,0.0,0.0,0.00466,-0.00299,1.5622,60.97106,53.37498,53.18053,,,,59.94898,46.59864,,59.949,45.65025,45.96638,44.24413,43.6352,,,0.01707,0.01709,,,-0.15,,,,,,,,,,0.0,0.0,0.0,0.0,0.0,0.0,1999-01-01,1999-01-01,1999-01-01,1999-01-01,1999-01-01,1999-01-01,0.389,0.389,0.381,0.374,0.366,0.379,2005-02-11,2005-01-21,2004-12-17,2005-01-28,2004-12-31,2004-12-10,0.0,0.0,0.0,100.0,100.0,100.0,1999-01-01,1999-01-01,1999-01-01,1999-01-01,1999-01-01,1999-01-01,0.0,0.0,0.0,-0.029,100.0,100.0,1999-01-01,1999-01-01,1999-01-01,2004-08-06,1999-01-01,1999-01-01,0.0,0.0,0.0,-0.022,100.0,100.0,1999-01-01,1999-01-01,1999-01-01,2004-07-09,1999-01-01,1999-01-01,0.0,0.0,0.0,-0.037,100.0,100.0,1999-01-01,1999-01-01,1999-01-01,2004-07-23,1999-01-01,1999-01-01,0.0,0.0,0.0,100.0,100.0,100.0,1999-01-01,1999-01-01,1999-01-01,1999-01-01,1999-01-01,1999-01-01,0.0,0.0,0.0,-0.004,100.0,100.0,1999-01-01,1999-01-01,1999-01-01,2004-12-03,1999-01-01,1999-01-01,-0.002,0.0,0.0,-0.002,100.0,100.0,2005-01-21,1999-01-01,1999-01-01,2004-12-10,1999-01-01,1999-01-01,0.0,0.0,0.0,100.0,100.0,100.0,1999-01-01,1999-01-01,1999-01-01,1999-01-01,1999-01-01,1999-01-01,94000,57000,1900,2.22,-53.5,-12.83,0.0,0.0,0.0,-0.016,100.0,100.0,0.002,0.0,0.0,-0.003,100.0,100.0,0.0,0.0,0.0,-0.01453,100.0,100.0,0.0,0.0,0.0,100.0,100.0,100.0,59.949,62.44,47.409,19.898,7.647,40.674,0.0,0.0,0.0,100.0,100.0,100.0,2004-11-19,1999-01-01,1999-01-01,2004-06-18,1999-01-01,1999-01-01,1999-01-01,1999-01-01,1999-01-01,2004-07-30,1999-01-01,1999-01-01,0,0,0,2037,0,0,1999-01-01,1999-01-01,1999-01-01,1999-01-01,1999-01-01,1999-01-01,2005-02-11,2005-01-21,2004-12-17,2005-01-28,2004-12-31,2004-12-10,1999-01-01,1999-01-01,1999-01-01,1999-01-01,1999-01-01,1999-01-01,,,,,Life.BullEnd,Life.Bear,Life.BearRecovery,Life.BearEnd,Life.BullStart,p2p,p2n,,p2n,,0.38725,,0.387,-2.39,3.17,-1.03,2.33,-0.76,0.0,-1.53,4.15,10.0,15.0,20.0,30.0,10.0,5.0,15.0,25.0,,
2005-02-18,PPG,,,,,,,0,0,0,,0,0,0,,,0.3837,0.38184,0.38045,0.38615,-0.00676,,,-0.00176,,,0.00199,,,-0.00274,,,-0.00574,,,-0.00198,,,0.00102,0.00875,-0.00773,-0.00221,,,0.38125,0.38136,-0.0001,-0.00113,-0.00299,0.00186,0.00192,,,,,-0.0,-0.0078,0.00448,-0.00354,1.26411,55.83259,53.56641,53.37498,,,,40.05102,53.31633,,,55.68427,48.99493,44.95772,44.30311,,,0.01716,0.01693,,,-0.15,,,,,,,,,,0.0,0.0,0.0,0.0,0.0,0.0,1999-01-01,1999-01-01,1999-01-01,1999-01-01,1999-01-01,1999-01-01,0.389,0.389,0.381,0.374,0.366,0.379,2005-02-11,2005-01-21,2004-12-17,2005-01-28,2004-12-31,2004-12-10,0.0,0.0,0.0,100.0,100.0,100.0,1999-01-01,1999-01-01,1999-01-01,1999-01-01,1999-01-01,1999-01-01,0.0,0.0,0.0,-0.029,100.0,100.0,1999-01-01,1999-01-01,1999-01-01,2004-08-06,1999-01-01,1999-01-01,0.0,0.0,0.0,-0.022,100.0,100.0,1999-01-01,1999-01-01,1999-01-01,2004-07-09,1999-01-01,1999-01-01,0.0,0.0,0.0,-0.037,100.0,100.0,1999-01-01,1999-01-01,1999-01-01,2004-07-23,1999-01-01,1999-01-01,0.0,0.0,0.0,100.0,100.0,100.0,1999-01-01,1999-01-01,1999-01-01,1999-01-01,1999-01-01,1999-01-01,0.0,0.0,0.0,-0.004,100.0,100.0,1999-01-01,1999-01-01,1999-01-01,2004-12-03,1999-01-01,1999-01-01,-0.002,0.0,0.0,-0.002,100.0,100.0,2005-01-21,1999-01-01,1999-01-01,2004-12-10,1999-01-01,1999-01-01,0.0,0.0,0.0,100.0,100.0,100.0,1999-01-01,1999-01-01,1999-01-01,1999-01-01,1999-01-01,1999-01-01,57000,1900,13500,-53.5,-12.83,-52.65,0.0,0.0,0.0,-0.016,100.0,100.0,0.002,0.0,0.0,-0.003,100.0,100.0,0.0,0.0,0.0,-0.01453,100.0,100.0,0.0,0.0,0.0,100.0,100.0,100.0,59.949,62.44,47.409,19.898,7.647,40.674,0.0,0.0,0.0,100.0,100.0,100.0,2004-11-19,1999-01-01,1999-01-01,2004-06-18,1999-01-01,1999-01-01,1999-01-01,1999-01-01,1999-01-01,2004-07-30,1999-01-01,1999-01-01,0,0,0,2037,0,0,1999-01-01,1999-01-01,1999-01-01,1999-01-01,1999-01-01,1999-01-01,2005-02-11,2005-01-21,2004-12-17,2005-01-28,2004-12-31,2004-12-10,1999-01-01,1999-01-01,1999-01-01,1999-01-01,1999-01-01,1999-01-01,,,,,Life.BullEnd,Life.Bear,Life.BearRecovery,Life.BearEnd,Life.BullStart,p2n,,p2n,,,0.38205,,,-1.06,3.17,-1.03,2.33,-0.76,0.0,-1.53,4.15,5.0,15.0,20.0,30.0,10.0,5.0,15.0,25.0,,
2005-02-25,PPG,,,,,,,0,0,0,,0,0,0,,,0.3812,0.38082,0.38004,0.38567,-0.00607,,,-0.00179,,,0.00226,,,-0.00267,,,-0.00483,,,-0.00219,,,0.00124,0.00833,-0.00709,-0.00222,-0.002,,0.38048,0.38098,-0.0005,-0.00075,-0.00254,0.00179,0.00186,,,,,-0.0,-0.0052,0.00429,-0.00391,1.09672,52.30635,53.74681,53.56641,,,,26.78571,42.2619,,,50.05962,50.46471,45.7466,45.04039,,,0.01705,0.01678,,,-0.15,,,,,,,,,,0.0,0.0,0.0,0.0,0.0,0.0,1999-01-01,1999-01-01,1999-01-01,1999-01-01,1999-01-01,1999-01-01,0.389,0.389,0.381,0.374,0.366,0.379,2005-02-11,2005-01-21,2004-12-17,2005-01-28,2004-12-31,2004-12-10,0.0,0.0,0.0,100.0,100.0,100.0,1999-01-01,1999-01-01,1999-01-01,1999-01-01,1999-01-01,1999-01-01,0.0,0.0,0.0,-0.029,100.0,100.0,1999-01-01,1999-01-01,1999-01-01,2004-08-06,1999-01-01,1999-01-01,0.0,0.0,0.0,-0.022,100.0,100.0,1999-01-01,1999-01-01,1999-01-01,2004-07-09,1999-01-01,1999-01-01,0.0,0.0,0.0,-0.037,100.0,100.0,1999-01-01,1999-01-01,1999-01-01,2004-07-23,1999-01-01,1999-01-01,0.0,0.0,0.0,100.0,100.0,100.0,1999-01-01,1999-01-01,1999-01-01,1999-01-01,1999-01-01,1999-01-01,0.0,0.0,0.0,-0.004,100.0,100.0,1999-01-01,1999-01-01,1999-01-01,2004-12-03,1999-01-01,1999-01-01,-0.002,0.0,0.0,-0.002,100.0,100.0,2005-01-21,1999-01-01,1999-01-01,2004-12-10,1999-01-01,1999-01-01,0.0,0.0,0.0,-0.002,100.0,100.0,1999-01-01,1999-01-01,1999-01-01,2005-02-25,1999-01-01,1999-01-01,1900,13500,76800,-12.83,-52.65,27.35,0.0,0.0,0.0,-0.016,100.0,100.0,0.002,0.0,0.0,-0.003,100.0,100.0,0.0,0.0,0.0,-0.01453,100.0,100.0,0.0,0.0,0.0,100.0,100.0,100.0,59.949,62.44,47.409,19.898,7.647,40.674,0.0,0.0,0.0,100.0,100.0,100.0,2004-11-19,1999-01-01,1999-01-01,2004-06-18,1999-01-01,1999-01-01,1999-01-01,1999-01-01,1999-01-01,2004-07-30,1999-01-01,1999-01-01,0,0,0,2037,0,0,1999-01-01,1999-01-01,1999-01-01,1999-01-01,1999-01-01,1999-01-01,2005-02-11,2005-01-21,2004-12-17,2005-01-28,2004-12-31,2004-12-10,1999-01-01,1999-01-01,1999-01-01,1999-01-01,1999-01-01,1999-01-01,-76800.0,,,,Life.BullEnd,Life.Bear,Life.BearRecovery,Life.BearEnd,Life.BullStart,,p2n,,,n2p,0.3775,0.378,,3.31,-1.03,2.33,-0.76,0.0,-1.53,4.15,-1.74,15.0,20.0,30.0,10.0,5.0,15.0,25.0,15.0,,
2005-03-04,PPG,,,,,,,0,0,0,,0,0,0,0.376,,0.37953,0.37998,0.37968,0.38521,-0.00539,,,-0.00183,,,0.00251,,,-0.00259,,,-0.00394,,,-0.00242,,,0.00145,0.0079,-0.00645,-0.00222,,,0.37982,0.38062,-0.0008,-0.00039,-0.00211,0.00172,0.00179,,,,,0.0,0.0,0.00336,-0.00391,0.85766,46.16896,53.91239,53.74681,,,,26.78571,31.20748,26.786,,43.48659,49.74349,46.61537,45.8512,,,0.01695,0.01663,,,-0.15,,,,,,,,,,0.0,0.0,0.0,0.0,0.0,0.0,1999-01-01,1999-01-01,1999-01-01,1999-01-01,1999-01-01,1999-01-01,0.389,0.389,0.381,0.376,0.374,0.366,2005-02-11,2005-01-21,2004-12-17,2005-03-04,2005-01-28,2004-12-31,0.0,0.0,0.0,100.0,100.0,100.0,1999-01-01,1999-01-01,1999-01-01,1999-01-01,1999-01-01,1999-01-01,0.0,0.0,0.0,-0.029,100.0,100.0,1999-01-01,1999-01-01,1999-01-01,2004-08-06,1999-01-01,1999-01-01,0.0,0.0,0.0,-0.022,100.0,100.0,1999-01-01,1999-01-01,1999-01-01,2004-07-09,1999-01-01,1999-01-01,0.0,0.0,0.0,-0.037,100.0,100.0,1999-01-01,1999-01-01,1999-01-01,2004-07-23,1999-01-01,1999-01-01,0.0,0.0,0.0,100.0,100.0,100.0,1999-01-01,1999-01-01,1999-01-01,1999-01-01,1999-01-01,1999-01-01,0.0,0.0,0.0,-0.004,100.0,100.0,1999-01-01,1999-01-01,1999-01-01,2004-12-03,1999-01-01,1999-01-01,-0.002,0.0,0.0,-0.002,100.0,100.0,2005-01-21,1999-01-01,1999-01-01,2004-12-10,1999-01-01,1999-01-01,0.0,0.0,0.0,-0.002,100.0,100.0,1999-01-01,1999-01-01,1999-01-01,2005-02-25,1999-01-01,1999-01-01,13500,76800,183000,-52.65,27.35,196.42,0.0,0.0,0.0,-0.016,100.0,100.0,0.002,0.0,0.0,-0.003,100.0,100.0,0.0,0.0,0.0,-0.01453,100.0,100.0,0.0,0.0,0.0,100.0,100.0,100.0,59.949,62.44,47.409,26.786,19.898,7.647,0.0,0.0,0.0,100.0,100.0,100.0,2004-11-19,1999-01-01,1999-01-01,2004-06-18,1999-01-01,1999-01-01,1999-01-01,1999-01-01,1999-01-01,2004-07-30,1999-01-01,1999-01-01,0,0,0,2037,0,0,1999-01-01,1999-01-01,1999-01-01,1999-01-01,1999-01-01,1999-01-01,2005-02-11,2005-01-21,2004-12-17,2005-03-04,2005-01-28,2004-12-31,1999-01-01,1999-01-01,1999-01-01,1999-01-01,1999-01-01,1999-01-01,,183000.0,,,Life.BullEnd,Life.Bear,Life.BearRecovery,Life.BearEnd,Life.BullStart,p2n,,,n2p,p2p,0.38075,,,2.43,-1.03,2.33,-0.76,0.0,-1.53,4.15,-1.74,10.0,20.0,30.0,10.0,5.0,15.0,25.0,15.0,,
2005-03-11,PPG,,,,,,,0,0,0,,0,0,0,,0.394,0.38449,0.3826,0.38108,0.38566,-0.00473,,,-0.00186,,,0.00273,,,-0.0025,,,-0.00308,,,-0.00266,,,0.00165,0.00746,-0.00581,-0.00221,,,0.38206,0.38164,0.00042,-6e-05,-0.0017,0.00164,0.00172,,,,,0.0182,0.0,0.00429,-0.00391,1.09489,52.26481,54.05953,53.91239,,,,73.21429,42.2619,,73.214,60.15326,51.23316,47.56545,46.73709,,,0.01704,0.01649,,,-0.15,,,,,,,,,,0.0,0.0,0.0,0.0,0.0,0.0,1999-01-01,1999-01-01,1999-01-01,1999-01-01,1999-01-01,1999-01-01,0.394,0.389,0.389,0.376,0.374,0.366,2005-03-11,2005-02-11,2005-01-21,2005-03-04,2005-01-28,2004-12-31,0.0,0.0,0.0,100.0,100.0,100.0,1999-01-01,1999-01-01,1999-01-01,1999-01-01,1999-01-01,1999-01-01,0.0,0.0,0.0,-0.029,100.0,100.0,1999-01-01,1999-01-01,1999-01-01,2004-08-06,1999-01-01,1999-01-01,0.0,0.0,0.0,-0.022,100.0,100.0,1999-01-01,1999-01-01,1999-01-01,2004-07-09,1999-01-01,1999-01-01,0.0,0.0,0.0,-0.037,100.0,100.0,1999-01-01,1999-01-01,1999-01-01,2004-07-23,1999-01-01,1999-01-01,0.0,0.0,0.0,100.0,100.0,100.0,1999-01-01,1999-01-01,1999-01-01,1999-01-01,1999-01-01,1999-01-01,0.0,0.0,0.0,-0.004,100.0,100.0,1999-01-01,1999-01-01,1999-01-01,2004-12-03,1999-01-01,1999-01-01,-0.002,0.0,0.0,-0.002,100.0,100.0,2005-01-21,1999-01-01,1999-01-01,2004-12-10,1999-01-01,1999-01-01,0.0,0.0,0.0,-0.002,100.0,100.0,1999-01-01,1999-01-01,1999-01-01,2005-02-25,1999-01-01,1999-01-01,76800,183000,315300,27.35,196.42,110.43,0.0,0.0,0.0,-0.016,100.0,100.0,0.002,0.0,0.0,-0.003,100.0,100.0,0.0,0.0,0.0,-0.01453,100.0,100.0,0.0,0.0,0.0,100.0,100.0,100.0,73.214,59.949,62.44,26.786,19.898,7.647,0.0,0.0,0.0,100.0,100.0,100.0,2004-11-19,1999-01-01,1999-01-01,2004-06-18,1999-01-01,1999-01-01,1999-01-01,1999-01-01,1999-01-01,2004-07-30,1999-01-01,1999-01-01,0,0,0,2037,0,0,1999-01-01,1999-01-01,1999-01-01,1999-01-01,1999-01-01,1999-01-01,2005-03-11,2005-02-11,2005-01-21,2005-03-04,2005-01-28,2004-12-31,1999-01-01,1999-01-01,1999-01-01,1999-01-01,1999-01-01,1999-01-01,,,,,Life.BullEnd,Life.Bear,Life.BearRecovery,Life.BearEnd,Life.BullStart,,,n2p,p2p,p2p,0.3879,,,0.54,-1.03,2.33,-0.76,0.0,-1.53,4.15,-1.74,5.0,20.0,30.0,10.0,5.0,15.0,25.0,15.0,,
2005-03-18,PPG,,,,,,,0,0,0,,0,0,0,0.387,,0.38519,0.38333,0.38161,0.3857,-0.00408,,,-0.00191,,,0.00293,,,-0.0024,,,-0.00225,,,-0.00289,,,0.00183,0.00701,-0.00518,-0.00219,,,0.38276,0.38201,0.00075,0.00026,-0.00131,0.00157,0.00164,,,,,-0.0,-0.0078,0.00429,-0.00373,1.14943,53.47594,54.18016,54.05953,,,,53.31633,51.10544,53.316,,69.0128,57.55088,48.59628,47.69738,,,0.01638,0.01636,,,-0.15,,,,,,,,,,0.0,0.0,0.0,0.0,0.0,0.0,1999-01-01,1999-01-01,1999-01-01,1999-01-01,1999-01-01,1999-01-01,0.394,0.389,0.389,0.387,0.376,0.374,2005-03-11,2005-02-11,2005-01-21,2005-03-18,2005-03-04,2005-01-28,0.0,0.0,0.0,100.0,100.0,100.0,1999-01-01,1999-01-01,1999-01-01,1999-01-01,1999-01-01,1999-01-01,0.0,0.0,0.0,-0.029,100.0,100.0,1999-01-01,1999-01-01,1999-01-01,2004-08-06,1999-01-01,1999-01-01,0.0,0.0,0.0,-0.022,100.0,100.0,1999-01-01,1999-01-01,1999-01-01,2004-07-09,1999-01-01,1999-01-01,0.0,0.0,0.0,-0.037,100.0,100.0,1999-01-01,1999-01-01,1999-01-01,2004-07-23,1999-01-01,1999-01-01,0.0,0.0,0.0,100.0,100.0,100.0,1999-01-01,1999-01-01,1999-01-01,1999-01-01,1999-01-01,1999-01-01,0.0,0.0,0.0,-0.004,100.0,100.0,1999-01-01,1999-01-01,1999-01-01,2004-12-03,1999-01-01,1999-01-01,-0.002,0.0,0.0,-0.002,100.0,100.0,2005-01-21,1999-01-01,1999-01-01,2004-12-10,1999-01-01,1999-01-01,0.0,0.0,0.0,-0.002,100.0,100.0,1999-01-01,1999-01-01,1999-01-01,2005-02-25,1999-01-01,1999-01-01,183000,315300,20700,196.42,110.43,-9.75,0.0,0.0,0.0,-0.016,100.0,100.0,0.002,0.0,0.0,-0.003,100.0,100.0,0.0,0.0,0.0,-0.01453,100.0,100.0,0.0,0.0,0.0,100.0,100.0,100.0,73.214,59.949,62.44,53.316,26.786,19.898,0.0,0.0,0.0,100.0,100.0,100.0,2004-11-19,1999-01-01,1999-01-01,2004-06-18,1999-01-01,1999-01-01,1999-01-01,1999-01-01,1999-01-01,2004-07-30,1999-01-01,1999-01-01,0,0,0,2037,0,0,1999-01-01,1999-01-01,1999-01-01,1999-01-01,1999-01-01,1999-01-01,2005-03-11,2005-02-11,2005-01-21,2005-03-18,2005-03-04,2005-01-28,1999-01-01,1999-01-01,1999-01-01,1999-01-01,1999-01-01,1999-01-01,,,-20700.0,,Life.BullEnd,Life.Bear,Life.BearRecovery,Life.BearEnd,Life.BullStart,,n2p,p2p,p2p,p2n,0.38985,,0.39,-0.99,2.33,-0.76,0.0,-1.53,4.15,-1.74,1.52,20.0,30.0,10.0,5.0,15.0,25.0,15.0,10.0,,
2005-03-25,PPG,,,,,,,0,0,0,,0,0,0,,0.392,0.3874,0.38487,0.38258,0.386,-0.00345,,,-0.00195,,,0.0031,,,-0.00228,,,-0.00146,,,-0.00311,,,0.00199,0.00655,-0.00456,-0.00215,,,0.38415,0.38273,0.00142,0.00055,-0.00094,0.00149,0.00157,,,,,0.0052,0.0,0.00447,-0.00373,1.19923,54.52962,54.26196,54.18016,,,,66.58163,64.37075,,66.582,85.24823,71.47143,49.70724,48.73025,,,0.01595,0.01623,,,-0.15,,,,,,,,,,0.0,0.0,0.0,0.0,0.0,0.0,1999-01-01,1999-01-01,1999-01-01,1999-01-01,1999-01-01,1999-01-01,0.392,0.394,0.389,0.387,0.376,0.374,2005-03-25,2005-03-11,2005-02-11,2005-03-18,2005-03-04,2005-01-28,0.0,0.0,0.0,100.0,100.0,100.0,1999-01-01,1999-01-01,1999-01-01,1999-01-01,1999-01-01,1999-01-01,0.0,0.0,0.0,-0.029,100.0,100.0,1999-01-01,1999-01-01,1999-01-01,2004-08-06,1999-01-01,1999-01-01,0.0,0.0,0.0,-0.022,100.0,100.0,1999-01-01,1999-01-01,1999-01-01,2004-07-09,1999-01-01,1999-01-01,0.0,0.0,0.0,-0.037,100.0,100.0,1999-01-01,1999-01-01,1999-01-01,2004-07-23,1999-01-01,1999-01-01,0.0,0.0,0.0,100.0,100.0,100.0,1999-01-01,1999-01-01,1999-01-01,1999-01-01,1999-01-01,1999-01-01,0.0,0.0,0.0,-0.004,100.0,100.0,1999-01-01,1999-01-01,1999-01-01,2004-12-03,1999-01-01,1999-01-01,-0.002,0.0,0.0,-0.002,100.0,100.0,2005-01-21,1999-01-01,1999-01-01,2004-12-10,1999-01-01,1999-01-01,0.0,0.0,0.0,-0.002,100.0,100.0,1999-01-01,1999-01-01,1999-01-01,2005-02-25,1999-01-01,1999-01-01,315300,20700,235600,110.43,-9.75,10.13,0.0,0.0,0.0,-0.016,100.0,100.0,0.002,0.0,0.0,-0.003,100.0,100.0,0.0,0.0,0.0,-0.01453,100.0,100.0,0.0,0.0,0.0,100.0,100.0,100.0,66.582,73.214,59.949,53.316,26.786,19.898,0.0,0.0,0.0,100.0,100.0,100.0,2004-11-19,1999-01-01,1999-01-01,2004-06-18,1999-01-01,1999-01-01,1999-01-01,1999-01-01,1999-01-01,2004-07-30,1999-01-01,1999-01-01,0,0,0,2037,0,0,1999-01-01,1999-01-01,1999-01-01,1999-01-01,1999-01-01,1999-01-01,2005-03-25,2005-03-11,2005-02-11,2005-03-18,2005-03-04,2005-01-28,1999-01-01,1999-01-01,1999-01-01,1999-01-01,1999-01-01,1999-01-01,,,,,Life.BullEnd,Life.Bear,Life.BearRecovery,Life.BearEnd,Life.BullStart,n2p,p2p,p2p,p2n,,0.3892,,,-0.82,2.33,-0.76,0.0,-1.53,4.15,-1.74,1.52,15.0,30.0,10.0,5.0,15.0,25.0,15.0,10.0,,
2005-04-01,PPG,,,,,,,0,0,0,,0,0,0,0.387,,0.38713,0.38518,0.38296,0.38603,-0.00283,,,-0.00199,,,0.00326,,,-0.00212,,,-0.00071,,,-0.00328,,,0.00212,0.00609,-0.00397,-0.00211,,,0.38453,0.38302,0.00151,0.00083,-0.00058,0.00141,0.00149,,,,,-0.0,-0.0052,0.00447,-0.00316,1.41309,58.5594,54.29153,54.26196,,,,50.0,56.63265,50.0,,62.99051,72.41718,50.89805,49.83443,,,0.01649,0.01611,,,-0.15,,,,,,,,,,0.0,0.0,0.0,0.0,0.0,0.0,1999-01-01,1999-01-01,1999-01-01,1999-01-01,1999-01-01,1999-01-01,0.392,0.394,0.389,0.387,0.387,0.376,2005-03-25,2005-03-11,2005-02-11,2005-04-01,2005-03-18,2005-03-04,0.0,0.0,0.0,100.0,100.0,100.0,1999-01-01,1999-01-01,1999-01-01,1999-01-01,1999-01-01,1999-01-01,0.0,0.0,0.0,-0.029,100.0,100.0,1999-01-01,1999-01-01,1999-01-01,2004-08-06,1999-01-01,1999-01-01,0.0,0.0,0.0,-0.022,100.0,100.0,1999-01-01,1999-01-01,1999-01-01,2004-07-09,1999-01-01,1999-01-01,0.0,0.0,0.0,-0.037,100.0,100.0,1999-01-01,1999-01-01,1999-01-01,2004-07-23,1999-01-01,1999-01-01,0.0,0.0,0.0,100.0,100.0,100.0,1999-01-01,1999-01-01,1999-01-01,1999-01-01,1999-01-01,1999-01-01,0.0,0.0,0.0,-0.004,100.0,100.0,1999-01-01,1999-01-01,1999-01-01,2004-12-03,1999-01-01,1999-01-01,-0.002,0.0,0.0,-0.002,100.0,100.0,2005-01-21,1999-01-01,1999-01-01,2004-12-10,1999-01-01,1999-01-01,0.0,0.0,0.0,-0.002,100.0,100.0,1999-01-01,1999-01-01,1999-01-01,2005-02-25,1999-01-01,1999-01-01,20700,235600,229500,-9.75,10.13,-15.01,0.0,0.0,0.0,-0.016,100.0,100.0,0.002,0.0,0.0,-0.003,100.0,100.0,0.0,0.0,0.0,-0.01453,100.0,100.0,0.0,0.0,0.0,100.0,100.0,100.0,66.582,73.214,59.949,50.0,53.316,26.786,0.0,0.0,0.0,100.0,100.0,100.0,2004-11-19,1999-01-01,1999-01-01,2004-06-18,1999-01-01,1999-01-01,1999-01-01,1999-01-01,1999-01-01,2004-07-30,1999-01-01,1999-01-01,0,0,0,2037,0,0,1999-01-01,1999-01-01,1999-01-01,1999-01-01,1999-01-01,1999-01-01,2005-03-25,2005-03-11,2005-02-11,2005-04-01,2005-03-18,2005-03-04,1999-01-01,1999-01-01,1999-01-01,1999-01-01,1999-01-01,1999-01-01,,,,,Life.BullEnd,Life.Bear,Life.BearRecovery,Life.BearEnd,Life.BullStart,p2p,p2p,p2n,,,0.38855,,,-0.66,2.33,-0.76,0.0,-1.53,4.15,-1.74,1.52,10.0,30.0,10.0,5.0,15.0,25.0,15.0,10.0,,
2005-04-08,PPG,,,,,,,0,0,0,,0,0,0,,0.389,0.38782,0.38591,0.38355,0.38618,-0.00223,,,-0.00203,,,0.00339,,,-0.00194,,,-2e-05,,,-0.00341,,,0.00221,0.00562,-0.00341,-0.00205,,,0.38525,0.38348,0.00177,0.00108,-0.00025,0.00133,0.00141,,,,,0.0026,0.0,0.00466,-0.00298,1.56355,60.99158,54.27246,54.29153,,54.292,,56.2201,57.60058,,56.22,52.79998,67.0129,52.1686,51.00991,,,0.01587,0.01598,,,-0.15,,,,,,,,,,0.0,0.0,0.0,0.0,0.0,0.0,1999-01-01,1999-01-01,1999-01-01,1999-01-01,1999-01-01,1999-01-01,0.389,0.392,0.394,0.387,0.387,0.376,2005-04-08,2005-03-25,2005-03-11,2005-04-01,2005-03-18,2005-03-04,0.0,0.0,0.0,100.0,100.0,100.0,1999-01-01,1999-01-01,1999-01-01,1999-01-01,1999-01-01,1999-01-01,0.0,0.0,0.0,-0.029,100.0,100.0,1999-01-01,1999-01-01,1999-01-01,2004-08-06,1999-01-01,1999-01-01,0.0,0.0,0.0,-0.022,100.0,100.0,1999-01-01,1999-01-01,1999-01-01,2004-07-09,1999-01-01,1999-01-01,0.0,0.0,0.0,-0.037,100.0,100.0,1999-01-01,1999-01-01,1999-01-01,2004-07-23,1999-01-01,1999-01-01,0.0,0.0,0.0,100.0,100.0,100.0,1999-01-01,1999-01-01,1999-01-01,1999-01-01,1999-01-01,1999-01-01,0.0,0.0,0.0,-0.004,100.0,100.0,1999-01-01,1999-01-01,1999-01-01,2004-12-03,1999-01-01,1999-01-01,-0.002,0.0,0.0,-0.002,100.0,100.0,2005-01-21,1999-01-01,1999-01-01,2004-12-10,1999-01-01,1999-01-01,0.0,0.0,0.0,-0.002,100.0,100.0,1999-01-01,1999-01-01,1999-01-01,2005-02-25,1999-01-01,1999-01-01,235600,229500,133300,10.13,-15.01,23.18,0.0,0.0,0.0,-0.016,100.0,100.0,0.002,0.0,0.0,-0.003,100.0,100.0,0.0,0.0,0.0,-0.01453,100.0,100.0,0.0,0.0,0.0,100.0,100.0,100.0,56.22,66.582,73.214,50.0,53.316,26.786,54.292,0.0,0.0,100.0,100.0,100.0,2004-11-19,1999-01-01,1999-01-01,2004-06-18,1999-01-01,1999-01-01,1999-01-01,1999-01-01,1999-01-01,2004-07-30,1999-01-01,1999-01-01,0,0,0,2037,0,0,1999-01-01,1999-01-01,1999-01-01,1999-01-01,1999-01-01,1999-01-01,2005-04-08,2005-03-25,2005-03-11,2005-04-01,2005-03-18,2005-03-04,2005-04-08,1999-01-01,1999-01-01,1999-01-01,1999-01-01,1999-01-01,,,,,Life.BullEnd,Life.Bear,Life.BearRecovery,Life.BearEnd,Life.BullStart,p2p,p2n,,,,0.3879,,,-0.49,2.33,-0.76,0.0,-1.53,4.15,-1.74,1.52,5.0,30.0,10.0,5.0,15.0,25.0,15.0,10.0,,
2005-04-15,PPG,,,,,,,0,0,0,,0,0,0,,,0.38741,0.38604,0.38384,0.3862,-0.00166,,,-0.00205,,,0.00349,,,-0.00173,,,0.00062,,,-0.00346,-0.003,,0.00228,0.00515,-0.00287,-0.00197,,,0.38545,0.38371,0.00174,0.0013,6e-05,0.00124,0.00133,,,,,-0.0,-0.0026,0.00391,-0.00316,1.23476,55.25253,54.21793,54.27246,,,0.96053,50.0,52.07337,,,29.9987,48.59639,53.51975,52.25783,,,0.0157,0.01586,,,-0.15,,,,,,,,,,0.0,0.0,0.0,0.0,0.0,0.0,1999-01-01,1999-01-01,1999-01-01,1999-01-01,1999-01-01,1999-01-01,0.389,0.392,0.394,0.387,0.387,0.376,2005-04-08,2005-03-25,2005-03-11,2005-04-01,2005-03-18,2005-03-04,0.0,0.0,0.0,100.0,100.0,100.0,1999-01-01,1999-01-01,1999-01-01,1999-01-01,1999-01-01,1999-01-01,0.0,0.0,0.0,-0.029,100.0,100.0,1999-01-01,1999-01-01,1999-01-01,2004-08-06,1999-01-01,1999-01-01,0.0,0.0,0.0,-0.022,100.0,100.0,1999-01-01,1999-01-01,1999-01-01,2004-07-09,1999-01-01,1999-01-01,0.0,0.0,0.0,-0.037,100.0,100.0,1999-01-01,1999-01-01,1999-01-01,2004-07-23,1999-01-01,1999-01-01,0.0,0.0,0.0,100.0,100.0,100.0,1999-01-01,1999-01-01,1999-01-01,1999-01-01,1999-01-01,1999-01-01,0.0,0.0,0.0,-0.004,100.0,100.0,1999-01-01,1999-01-01,1999-01-01,2004-12-03,1999-01-01,1999-01-01,-0.002,0.0,0.0,-0.003,-0.002,100.0,2005-01-21,1999-01-01,1999-01-01,2005-04-15,2004-12-10,1999-01-01,0.0,0.0,0.0,-0.002,100.0,100.0,1999-01-01,1999-01-01,1999-01-01,2005-02-25,1999-01-01,1999-01-01,229500,133300,44700,-15.01,23.18,-31.9,0.0,0.0,0.0,-0.016,100.0,100.0,0.002,0.0,0.0,-0.003,100.0,100.0,0.0,0.0,0.0,-0.01453,100.0,100.0,0.0,0.0,0.0,100.0,100.0,100.0,56.22,66.582,73.214,50.0,53.316,26.786,54.292,0.0,0.0,100.0,100.0,100.0,2004-11-19,1999-01-01,1999-01-01,2004-06-18,1999-01-01,1999-01-01,1999-01-01,1999-01-01,1999-01-01,2004-07-30,1999-01-01,1999-01-01,0,0,0,2037,0,0,1999-01-01,1999-01-01,1999-01-01,1999-01-01,1999-01-01,1999-01-01,2005-04-08,2005-03-25,2005-03-11,2005-04-01,2005-03-18,2005-03-04,2005-04-08,1999-01-01,1999-01-01,1999-01-01,1999-01-01,1999-01-01,,,-44700.0,,Life.BullEnd,Life.Bear,Life.BearRecovery,Life.BearEnd,Life.BullStart,p2n,,,,p2n,0.3859,0.386,,2.36,-0.76,0.0,-1.53,4.15,-1.74,1.52,-0.25,30.0,10.0,5.0,15.0,25.0,15.0,10.0,5.0,,
2005-04-22,PPG,,,,,,,0,0,0,,0,0,0,0.381,,0.38534,0.38516,0.38359,0.38596,-0.00112,,,-0.00206,-0.002,,0.00356,,,-0.00148,,,0.00119,,,-0.00344,,,0.00231,0.00468,-0.00237,-0.00188,,,0.3848,0.38352,0.00128,0.0015,0.00035,0.00116,0.00124,,,,,-0.0,-0.0054,0.00298,-0.00355,0.83903,45.62363,54.14379,54.21793,,,-8.66837,37.08134,47.76715,37.081,,18.92308,33.90725,54.95377,53.5803,,,0.01497,0.01574,,,-0.15,,,,,,,,,,0.0,0.0,0.0,0.0,0.0,0.0,1999-01-01,1999-01-01,1999-01-01,1999-01-01,1999-01-01,1999-01-01,0.389,0.392,0.394,0.381,0.387,0.387,2005-04-08,2005-03-25,2005-03-11,2005-04-22,2005-04-01,2005-03-18,0.0,0.0,0.0,100.0,100.0,100.0,1999-01-01,1999-01-01,1999-01-01,1999-01-01,1999-01-01,1999-01-01,0.0,0.0,0.0,-0.029,100.0,100.0,1999-01-01,1999-01-01,1999-01-01,2004-08-06,1999-01-01,1999-01-01,0.0,0.0,0.0,-0.022,100.0,100.0,1999-01-01,1999-01-01,1999-01-01,2004-07-09,1999-01-01,1999-01-01,0.0,0.0,0.0,-0.037,100.0,100.0,1999-01-01,1999-01-01,1999-01-01,2004-07-23,1999-01-01,1999-01-01,0.0,0.0,0.0,-0.002,100.0,100.0,1999-01-01,1999-01-01,1999-01-01,2005-04-22,1999-01-01,1999-01-01,0.0,0.0,0.0,-0.004,100.0,100.0,1999-01-01,1999-01-01,1999-01-01,2004-12-03,1999-01-01,1999-01-01,-0.002,0.0,0.0,-0.003,-0.002,100.0,2005-01-21,1999-01-01,1999-01-01,2005-04-15,2004-12-10,1999-01-01,0.0,0.0,0.0,-0.002,100.0,100.0,1999-01-01,1999-01-01,1999-01-01,2005-02-25,1999-01-01,1999-01-01,133300,44700,92300,23.18,-31.9,-33.67,0.0,0.0,0.0,-0.016,100.0,100.0,0.002,0.0,0.0,-0.003,100.0,100.0,0.0,0.0,0.0,-0.01453,100.0,100.0,0.0,0.0,0.0,100.0,100.0,100.0,56.22,66.582,73.214,37.081,50.0,53.316,54.292,0.0,0.0,100.0,100.0,100.0,2004-11-19,1999-01-01,1999-01-01,2004-06-18,1999-01-01,1999-01-01,1999-01-01,1999-01-01,1999-01-01,2004-07-30,1999-01-01,1999-01-01,0,0,0,2037,0,0,1999-01-01,1999-01-01,1999-01-01,1999-01-01,1999-01-01,1999-01-01,2005-04-08,2005-03-25,2005-03-11,2005-04-22,2005-04-01,2005-03-18,2005-04-08,1999-01-01,1999-01-01,1999-01-01,1999-01-01,1999-01-01,,,,,Life.BullEnd,Life.Bear,Life.BearRecovery,Life.BearEnd,Life.BullStart,,,,p2n,,0.38658,,,2.18,-0.76,0.0,-1.53,4.15,-1.74,1.52,-0.25,25.0,10.0,5.0,15.0,25.0,15.0,10.0,5.0,,
2005-04-29,PPG,,,,,,,0,0,0,,0,0,0,,0.397,0.38933,0.38737,0.3849,0.38651,-0.00061,,,-0.00205,,,0.0036,,,-0.00121,,,0.00169,,,-0.00335,,,0.0023,0.00421,-0.00191,-0.00178,,,0.38672,0.38454,0.00218,0.00168,0.00061,0.00107,0.00116,,,,,0.0161,0.0,0.00413,-0.00355,1.16298,53.76744,54.07023,54.14379,,,-0.52456,75.59809,54.22648,,75.598,27.24968,25.39049,56.47456,54.98071,,,0.01505,0.01562,,,-0.15,,,,,,,,,,0.0,0.0,0.0,0.0,0.0,0.0,1999-01-01,1999-01-01,1999-01-01,1999-01-01,1999-01-01,1999-01-01,0.397,0.389,0.392,0.381,0.387,0.387,2005-04-29,2005-04-08,2005-03-25,2005-04-22,2005-04-01,2005-03-18,0.0,0.0,0.0,100.0,100.0,100.0,1999-01-01,1999-01-01,1999-01-01,1999-01-01,1999-01-01,1999-01-01,0.0,0.0,0.0,-0.029,100.0,100.0,1999-01-01,1999-01-01,1999-01-01,2004-08-06,1999-01-01,1999-01-01,0.0,0.0,0.0,-0.022,100.0,100.0,1999-01-01,1999-01-01,1999-01-01,2004-07-09,1999-01-01,1999-01-01,0.0,0.0,0.0,-0.037,100.0,100.0,1999-01-01,1999-01-01,1999-01-01,2004-07-23,1999-01-01,1999-01-01,0.0,0.0,0.0,-0.002,100.0,100.0,1999-01-01,1999-01-01,1999-01-01,2005-04-22,1999-01-01,1999-01-01,0.0,0.0,0.0,-0.004,100.0,100.0,1999-01-01,1999-01-01,1999-01-01,2004-12-03,1999-01-01,1999-01-01,-0.002,0.0,0.0,-0.003,-0.002,100.0,2005-01-21,1999-01-01,1999-01-01,2005-04-15,2004-12-10,1999-01-01,0.0,0.0,0.0,-0.002,100.0,100.0,1999-01-01,1999-01-01,1999-01-01,2005-02-25,1999-01-01,1999-01-01,44700,92300,158600,-31.9,-33.67,9.36,0.0,0.0,0.0,-0.016,100.0,100.0,0.002,0.0,0.0,-0.003,100.0,100.0,0.0,0.0,0.0,-0.01453,100.0,100.0,0.0,0.0,0.0,100.0,100.0,100.0,75.598,56.22,66.582,37.081,50.0,53.316,54.292,0.0,0.0,100.0,100.0,100.0,2004-11-19,1999-01-01,1999-01-01,2004-06-18,1999-01-01,1999-01-01,1999-01-01,1999-01-01,1999-01-01,2004-07-30,1999-01-01,1999-01-01,0,0,0,2037,0,0,1999-01-01,1999-01-01,1999-01-01,1999-01-01,1999-01-01,1999-01-01,2005-04-29,2005-04-08,2005-03-25,2005-04-22,2005-04-01,2005-03-18,2005-04-08,1999-01-01,1999-01-01,1999-01-01,1999-01-01,1999-01-01,158600.0,,,,Life.BullEnd,Life.Bear,Life.BearRecovery,Life.BearEnd,Life.BullStart,,,p2n,,n2p,0.39128,,,0.95,-0.76,0.0,-1.53,4.15,-1.74,1.52,-0.25,20.0,10.0,5.0,15.0,25.0,15.0,10.0,5.0,,
2005-05-06,PPG,,,,,,,0,0,0,,0,0,0,,,0.38932,0.38772,0.38532,0.38665,-0.00013,,,-0.00202,,,0.00363,,,-0.00092,,,0.00214,,,-0.00317,,,0.00227,0.00376,-0.00149,-0.00166,,,0.38712,0.3849,0.00222,0.00183,0.00086,0.00098,0.00107,,,,,-0.0,-0.008,0.00413,-0.003,1.37619,57.91583,54.01003,54.07023,,,3.62383,56.45933,56.37959,,,32.96372,26.37883,58.08557,56.46299,,,0.01493,0.01549,,,-0.15,,,,,,,,,,0.0,0.0,0.0,0.0,0.0,0.0,1999-01-01,1999-01-01,1999-01-01,1999-01-01,1999-01-01,1999-01-01,0.397,0.389,0.392,0.381,0.387,0.387,2005-04-29,2005-04-08,2005-03-25,2005-04-22,2005-04-01,2005-03-18,0.0,0.0,0.0,100.0,100.0,100.0,1999-01-01,1999-01-01,1999-01-01,1999-01-01,1999-01-01,1999-01-01,0.0,0.0,0.0,-0.029,100.0,100.0,1999-01-01,1999-01-01,1999-01-01,2004-08-06,1999-01-01,1999-01-01,0.0,0.0,0.0,-0.022,100.0,100.0,1999-01-01,1999-01-01,1999-01-01,2004-07-09,1999-01-01,1999-01-01,0.0,0.0,0.0,-0.037,100.0,100.0,1999-01-01,1999-01-01,1999-01-01,2004-07-23,1999-01-01,1999-01-01,0.0,0.0,0.0,-0.002,100.0,100.0,1999-01-01,1999-01-01,1999-01-01,2005-04-22,1999-01-01,1999-01-01,0.0,0.0,0.0,-0.004,100.0,100.0,1999-01-01,1999-01-01,1999-01-01,2004-12-03,1999-01-01,1999-01-01,-0.002,0.0,0.0,-0.003,-0.002,100.0,2005-01-21,1999-01-01,1999-01-01,2005-04-15,2004-12-10,1999-01-01,0.0,0.0,0.0,-0.002,100.0,100.0,1999-01-01,1999-01-01,1999-01-01,2005-02-25,1999-01-01,1999-01-01,92300,158600,36000,-33.67,9.36,-2.94,0.0,0.0,0.0,-0.016,100.0,100.0,0.002,0.0,0.0,-0.003,100.0,100.0,0.0,0.0,0.0,-0.01453,100.0,100.0,0.0,0.0,0.0,100.0,100.0,100.0,75.598,56.22,66.582,37.081,50.0,53.316,54.292,0.0,0.0,100.0,100.0,100.0,2004-11-19,1999-01-01,1999-01-01,2004-06-18,1999-01-01,1999-01-01,1999-01-01,1999-01-01,1999-01-01,2004-07-30,1999-01-01,1999-01-01,0,0,0,2037,0,0,1999-01-01,1999-01-01,1999-01-01,1999-01-01,1999-01-01,1999-01-01,2005-04-29,2005-04-08,2005-03-25,2005-04-22,2005-04-01,2005-03-18,2005-04-08,1999-01-01,1999-01-01,1999-01-01,1999-01-01,1999-01-01,,,,,Life.BullEnd,Life.Bear,Life.BearRecovery,Life.BearEnd,Life.BullStart,,p2n,,n2p,,0.3913,,,0.95,-0.76,0.0,-1.53,4.15,-1.74,1.52,-0.25,15.0,10.0,5.0,15.0,25.0,15.0,10.0,5.0,,
2005-05-13,PPG,,,,,,,0,0,0,,0,0,0,0.389,,0.38931,0.38801,0.3857,0.38678,0.00032,,,-0.00197,,,0.00364,,,-0.00061,,,0.00253,,,-0.00293,,,0.00221,0.00332,-0.00111,-0.00153,,,0.38745,0.38522,0.00223,0.00197,0.00108,0.00089,0.00098,,,,,0.0,0.0,0.00301,-0.003,1.00238,50.05945,53.96683,54.01003,,,-4.23255,56.45933,62.83892,56.459,,45.52186,35.24509,59.78829,58.02926,,,0.01425,0.01537,,,,0.15,,,,,,,,,0.0,0.0,0.0,0.0,0.0,0.0,1999-01-01,1999-01-01,1999-01-01,1999-01-01,1999-01-01,1999-01-01,0.397,0.389,0.392,0.389,0.381,0.387,2005-04-29,2005-04-08,2005-03-25,2005-05-13,2005-04-22,2005-04-01,0.0,0.0,0.0,100.0,100.0,100.0,1999-01-01,1999-01-01,1999-01-01,1999-01-01,1999-01-01,1999-01-01,0.0,0.0,0.0,-0.029,100.0,100.0,1999-01-01,1999-01-01,1999-01-01,2004-08-06,1999-01-01,1999-01-01,0.0,0.0,0.0,-0.022,100.0,100.0,1999-01-01,1999-01-01,1999-01-01,2004-07-09,1999-01-01,1999-01-01,0.0,0.0,0.0,-0.037,100.0,100.0,1999-01-01,1999-01-01,1999-01-01,2004-07-23,1999-01-01,1999-01-01,0.0,0.0,0.0,-0.002,100.0,100.0,1999-01-01,1999-01-01,1999-01-01,2005-04-22,1999-01-01,1999-01-01,0.0,0.0,0.0,-0.004,100.0,100.0,1999-01-01,1999-01-01,1999-01-01,2004-12-03,1999-01-01,1999-01-01,-0.002,0.0,0.0,-0.003,-0.002,100.0,2005-01-21,1999-01-01,1999-01-01,2005-04-15,2004-12-10,1999-01-01,0.0,0.0,0.0,-0.002,100.0,100.0,1999-01-01,1999-01-01,1999-01-01,2005-02-25,1999-01-01,1999-01-01,158600,36000,56000,9.36,-2.94,-12.65,0.0,0.0,0.0,-0.016,100.0,100.0,0.002,0.0,0.0,-0.003,100.0,100.0,0.0,0.0,0.0,-0.01453,100.0,100.0,0.0,0.0,0.0,100.0,100.0,100.0,75.598,56.22,66.582,56.459,37.081,50.0,54.292,0.0,0.0,100.0,100.0,100.0,2004-11-19,1999-01-01,1999-01-01,2004-06-18,1999-01-01,1999-01-01,1999-01-01,1999-01-01,1999-01-01,2004-07-30,1999-01-01,1999-01-01,0,0,0,2037,0,0,1999-01-01,1999-01-01,1999-01-01,1999-01-01,1999-01-01,1999-01-01,2005-04-29,2005-04-08,2005-03-25,2005-05-13,2005-04-22,2005-04-01,2005-04-08,1999-01-01,1999-01-01,1999-01-01,1999-01-01,1999-01-01,,,,,Life.Bear,Life.BearRecovery,Life.BearEnd,Life.BullStart,Life.Bull,p2n,,n2p,,,0.3913,,,0.95,-0.76,0.0,-1.53,4.15,-1.74,1.52,-0.25,10.0,10.0,5.0,15.0,25.0,15.0,10.0,5.0,,
